2.532010000000000094e-01,1.511699999999999988e-01,2.276930000000000065e-01,3.042159999999999864e-01,1.001540000000000069e-01,2.363099999999999923e-02,1.511699999999999988e-01,-2.738499999999999962e-02,2.363099999999999923e-02,1.256619999999999959e-01,2.532010000000000094e-01,2.276930000000000065e-01,1.511699999999999988e-01,2.276930000000000065e-01,2.532010000000000094e-01,1.511699999999999988e-01,4.913900000000000212e-02,-2.738499999999999962e-02,-7.839999999999999747e-02,3.807389999999999941e-01,2.021850000000000036e-01,2.363099999999999923e-02,1.766770000000000007e-01,2.276930000000000065e-01,1.001540000000000069e-01,1.001540000000000069e-01,2.363099999999999923e-02,2.363099999999999923e-02,1.766770000000000007e-01,2.276930000000000065e-01,4.913900000000000212e-02,1.001540000000000069e-01,2.787080000000000113e-01,2.276930000000000065e-01,1.511699999999999988e-01,1.766770000000000007e-01,7.464600000000000402e-02,-5.289200000000000151e-02,1.256619999999999959e-01,1.511699999999999988e-01,1.511699999999999988e-01,2.532010000000000094e-01,2.532010000000000094e-01,2.532010000000000094e-01,2.532010000000000094e-01,1.511699999999999988e-01,4.913900000000000212e-02,-5.289200000000000151e-02,2.363099999999999923e-02,1.766770000000000007e-01,1.256619999999999959e-01,1.256619999999999959e-01,2.276930000000000065e-01,2.276930000000000065e-01,1.511699999999999988e-01,1.001540000000000069e-01,1.511699999999999988e-01,1.256619999999999959e-01,4.913900000000000212e-02,1.256619999999999959e-01,1.256619999999999959e-01,1.001540000000000069e-01,2.532010000000000094e-01,1.256619999999999959e-01,1.256619999999999959e-01,1.256619999999999959e-01,1.256619999999999959e-01,1.511699999999999988e-01,1.256619999999999959e-01,1.511699999999999988e-01,7.464600000000000402e-02,2.276930000000000065e-01,2.276930000000000065e-01,1.511699999999999988e-01,2.532010000000000094e-01,2.276930000000000065e-01,-1.876999999999999979e-03,7.464600000000000402e-02,-5.289200000000000151e-02,2.363099999999999923e-02,2.532010000000000094e-01,3.042159999999999864e-01,1.256619999999999959e-01,1.001540000000000069e-01,1.256619999999999959e-01,1.001540000000000069e-01,2.276930000000000065e-01,1.001540000000000069e-01,7.464600000000000402e-02,2.021850000000000036e-01,3.552319999999999922e-01,2.021850000000000036e-01,1.766770000000000007e-01,4.062470000000000248e-01,2.276930000000000065e-01,7.464600000000000402e-02,-5.289200000000000151e-02,7.464600000000000402e-02,2.276930000000000065e-01,4.913900000000000212e-02,1.001540000000000069e-01,-1.876999999999999979e-03,7.464600000000000402e-02,2.021850000000000036e-01,2.021850000000000036e-01,3.042159999999999864e-01,1.256619999999999959e-01,-1.876999999999999979e-03,1.001540000000000069e-01,1.511699999999999988e-01,4.913900000000000212e-02,4.317549999999999999e-01,4.317549999999999999e-01,-1.804310000000000080e-01,2.276930000000000065e-01,2.021850000000000036e-01,-5.289200000000000151e-02,-2.314470000000000138e-01,2.363099999999999923e-02,2.021850000000000036e-01,3.552319999999999922e-01,5.592939999999999579e-01,6.103089999999999904e-01,4.317549999999999999e-01,2.276930000000000065e-01,-4.610159999999999814e-01,-3.079700000000000215e-01,-5.885550000000000503e-01,-4.610159999999999814e-01,-1.876999999999999979e-03,3.552319999999999922e-01,6.103089999999999904e-01,1.120463999999999904e+00,1.171478999999999937e+00,6.358169999999999655e-01,2.363099999999999923e-02,4.913900000000000212e-02,-2.569540000000000157e-01,-5.375400000000000178e-01,-6.905860000000000332e-01,-4.610159999999999814e-01,1.001540000000000069e-01,4.572629999999999750e-01,4.913900000000000212e-02,-1.876999999999999979e-03,5.337859999999999827e-01,1.069447999999999954e+00,8.143709999999999560e-01,6.613240000000000229e-01,4.913900000000000212e-02,-6.905860000000000332e-01,-3.589849999999999985e-01,-1.175232999999999972e+00,-4.610159999999999814e-01,3.807389999999999941e-01,8.143709999999999560e-01,6.358169999999999655e-01,3.807389999999999941e-01,3.552319999999999922e-01,9.929249999999999465e-01,4.317549999999999999e-01,1.001540000000000069e-01,-7.416019999999999834e-01,4.827699999999999769e-01,1.094956000000000040e+00,1.503079999999999972e+00,-1.430311000000000110e+00,-2.272066000000000141e+00,-1.294160000000000033e-01,-5.630469999999999642e-01,-1.379294999999999938e+00,6.868319999999999981e-01,1.605110999999999954e+00,1.452064999999999939e+00,1.860189000000000092e+00,1.834681000000000006e+00,-1.876999999999999979e-03,-7.839999999999999747e-02,2.363099999999999923e-02,-3.844929999999999737e-01,-1.532342000000000093e+00,-2.738499999999999962e-02,-1.876999999999999979e-03,-1.098710000000000075e+00,-7.416019999999999834e-01,-2.738499999999999962e-02,2.497882000000000158e+00,1.681634000000000073e+00,2.021850000000000036e-01,-1.455818000000000056e+00,-1.073201999999999989e+00,2.276930000000000065e-01,5.337859999999999827e-01,7.888629999999999809e-01,5.337859999999999827e-01,9.419100000000000250e-01,4.062470000000000248e-01,8.143709999999999560e-01,6.103089999999999904e-01,7.464600000000000402e-02,-6.395710000000000006e-01,-8.946479999999999988e-01,-1.175232999999999972e+00,-7.416019999999999834e-01,6.613240000000000229e-01,2.217296999999999851e+00,1.120463999999999904e+00,-2.833237000000000005e+00,-2.935268000000000210e+00,-1.039080000000000004e-01,1.732650000000000023e+00,2.599912999999999919e+00,3.084560000000000191e+00,8.653859999999999886e-01,-4.865240000000000120e-01,2.021850000000000036e-01,-4.355089999999999795e-01,-1.353787999999999991e+00,-1.583356999999999903e+00,6.868319999999999981e-01,2.276930000000000065e-01,7.464600000000000402e-02,7.633550000000000058e-01,7.123399999999999732e-01,-1.659880000000000022e+00,-1.251757000000000009e+00,-4.610159999999999814e-01,1.605110999999999954e+00,2.140773999999999955e+00,1.171478999999999937e+00,1.001540000000000069e-01,2.021850000000000036e-01,-4.610159999999999814e-01,-1.047695000000000043e+00,-8.691400000000000237e-01,2.787080000000000113e-01,4.062470000000000248e-01,8.398790000000000422e-01,2.276930000000000065e-01,-1.804310000000000080e-01,4.913900000000000212e-02,4.913900000000000212e-02,2.532010000000000094e-01,1.299018000000000006e+00,1.452064999999999939e+00,-1.294160000000000033e-01,-1.481325999999999921e+00,-2.374096999999999902e+00,-5.630469999999999642e-01,1.145971999999999991e+00,9.164020000000000499e-01,8.908939999999999637e-01,8.653859999999999886e-01,4.062470000000000248e-01,4.062470000000000248e-01,-7.839999999999999747e-02,-1.124217999999999940e+00,5.337859999999999827e-01,5.592939999999999579e-01,5.848010000000000153e-01,-1.532342000000000093e+00,-1.226248999999999922e+00,6.358169999999999655e-01,3.552319999999999922e-01,-1.294160000000000033e-01,1.094956000000000040e+00,1.579603000000000090e+00,3.297240000000000171e-01,-1.039080000000000004e-01,-6.905860000000000332e-01,-9.711710000000000065e-01,-3.589849999999999985e-01,3.042159999999999864e-01,1.579603000000000090e+00,1.273509999999999920e+00,1.120463999999999904e+00,-6.140630000000000255e-01,-1.838435000000000041e+00,-4.355089999999999795e-01,4.572629999999999750e-01,7.378479999999999484e-01,6.613240000000000229e-01,5.082780000000000076e-01,-5.289200000000000151e-02,-4.100010000000000043e-01,-6.905860000000000332e-01,-1.039080000000000004e-01,6.103089999999999904e-01,6.868319999999999981e-01,6.613240000000000229e-01,-2.738499999999999962e-02,-5.375400000000000178e-01,-2.824619999999999909e-01,9.674169999999999714e-01,8.908939999999999637e-01,-2.738499999999999962e-02,-8.181249999999999911e-01,-2.059390000000000109e-01,8.908939999999999637e-01,1.171478999999999937e+00,6.358169999999999655e-01,4.062470000000000248e-01,5.592939999999999579e-01,-1.812926999999999955e+00,-1.455818000000000056e+00,-2.738499999999999962e-02,5.337859999999999827e-01,6.103089999999999904e-01,1.503079999999999972e+00,1.299018000000000006e+00,-3.844929999999999737e-01,-9.966789999999999816e-01,-9.711710000000000065e-01,-4.610159999999999814e-01,-4.355089999999999795e-01,1.528588000000000058e+00,1.707141999999999937e+00,5.337859999999999827e-01,-4.355089999999999795e-01,3.552319999999999922e-01,2.276930000000000065e-01,4.572629999999999750e-01,-1.549230000000000051e-01,-2.569540000000000157e-01,-1.277263999999999955e+00,4.913900000000000212e-02,2.787080000000000113e-01,-2.824619999999999909e-01,-3.079700000000000215e-01,1.375540999999999903e+00,1.452064999999999939e+00,1.299018000000000006e+00,-1.659880000000000022e+00,-1.761911000000000005e+00,-5.120320000000000427e-01,1.094956000000000040e+00,1.605110999999999954e+00,9.164020000000000499e-01,5.082780000000000076e-01,4.317549999999999999e-01,-1.685388000000000108e+00,-1.634373000000000076e+00,7.123399999999999732e-01,1.043941000000000008e+00,8.398790000000000422e-01,6.613240000000000229e-01,7.633550000000000058e-01,-5.289200000000000151e-02,-7.926170000000000160e-01,-1.736404000000000059e+00,-9.711710000000000065e-01,1.018432999999999922e+00,2.140773999999999955e+00,1.834681000000000006e+00,8.143709999999999560e-01,-1.124217999999999940e+00,-3.037298999999999971e+00,-2.450620999999999938e+00,4.827699999999999769e-01,1.579603000000000090e+00,2.446867000000000125e+00,2.778467000000000020e+00,5.592939999999999579e-01,2.363099999999999923e-02,-2.824619999999999909e-01,-8.691400000000000237e-01,-6.905860000000000332e-01,-6.395710000000000006e-01,-1.804310000000000080e-01,-1.277263999999999955e+00,7.633550000000000058e-01,1.477572000000000108e+00,1.043941000000000008e+00,8.908939999999999637e-01,-3.079700000000000215e-01,-1.506834000000000007e+00,-1.175232999999999972e+00,7.378479999999999484e-01,3.807389999999999941e-01,-5.289200000000000151e-02,1.120463999999999904e+00,6.613240000000000229e-01,4.317549999999999999e-01,2.532010000000000094e-01,1.766770000000000007e-01,-5.120320000000000427e-01,-2.569540000000000157e-01,2.787080000000000113e-01,2.276930000000000065e-01,-1.039080000000000004e-01,-1.804310000000000080e-01,-2.738499999999999962e-02,-7.839999999999999747e-02,5.082780000000000076e-01,1.222495000000000109e+00,1.171478999999999937e+00,3.807389999999999941e-01,-9.456639999999999491e-01,-9.201559999999999739e-01,-5.885550000000000503e-01,-2.738499999999999962e-02,5.082780000000000076e-01,2.532010000000000094e-01,5.848010000000000153e-01,1.477572000000000108e+00,1.299018000000000006e+00,-1.294160000000000033e-01,-6.905860000000000332e-01,-8.436329999999999663e-01,-6.650779999999999470e-01,3.042159999999999864e-01,4.913900000000000212e-02,2.021850000000000036e-01,9.674169999999999714e-01,7.378479999999999484e-01,7.378479999999999484e-01,-7.160940000000000083e-01,-2.738499999999999962e-02,5.848010000000000153e-01,1.766770000000000007e-01,-2.119019999999999904e+00,-1.277263999999999955e+00,-3.589849999999999985e-01,1.834681000000000006e+00,2.778467000000000020e+00,6.358169999999999655e-01,1.766770000000000007e-01,-1.430311000000000110e+00,-3.844929999999999737e-01,-4.100010000000000043e-01,-5.289200000000000151e-02,6.613240000000000229e-01,1.401048999999999989e+00,1.171478999999999937e+00,9.164020000000000499e-01,1.511699999999999988e-01,-1.175232999999999972e+00,-1.379294999999999938e+00,-2.314470000000000138e-01,7.633550000000000058e-01,3.297240000000000171e-01,-1.876999999999999979e-03,1.256619999999999959e-01,-2.314470000000000138e-01,-1.812926999999999955e+00,-4.100010000000000043e-01,1.094956000000000040e+00,1.681634000000000073e+00,6.103089999999999904e-01,4.062470000000000248e-01,1.120463999999999904e+00,1.069447999999999954e+00,-1.685388000000000108e+00,-2.221051000000000109e+00,9.164020000000000499e-01,1.375540999999999903e+00,1.018432999999999922e+00,5.082780000000000076e-01,-7.926170000000000160e-01,-1.073201999999999989e+00,-9.966789999999999816e-01,3.042159999999999864e-01,-5.289200000000000151e-02,5.082780000000000076e-01,1.477572000000000108e+00,1.426557000000000075e+00,2.276930000000000065e-01,-7.671090000000000408e-01,4.827699999999999769e-01,5.082780000000000076e-01,2.363099999999999923e-02,3.042159999999999864e-01,5.337859999999999827e-01,-3.589849999999999985e-01,-1.226248999999999922e+00,-8.181249999999999911e-01,-1.294160000000000033e-01,1.256619999999999959e-01,5.848010000000000153e-01,2.787080000000000113e-01,4.913900000000000212e-02,4.827699999999999769e-01,3.552319999999999922e-01,1.273509999999999920e+00,1.043941000000000008e+00,4.572629999999999750e-01,-1.328279999999999905e+00,-1.889450000000000074e+00,-1.532342000000000093e+00,6.358169999999999655e-01,1.834681000000000006e+00,1.809172999999999920e+00,4.317549999999999999e-01,-1.124217999999999940e+00,1.511699999999999988e-01,1.171478999999999937e+00,7.633550000000000058e-01,1.766770000000000007e-01,0.000000000000000000e+00,0.000000000000000000e+00,-2.059390000000000109e-01,-9.201559999999999739e-01,-1.039080000000000004e-01,4.062470000000000248e-01,3.552319999999999922e-01,1.120463999999999904e+00,2.363099999999999923e-02,-1.047695000000000043e+00,-1.200741000000000058e+00,-2.059390000000000109e-01,4.827699999999999769e-01,5.337859999999999827e-01,7.378479999999999484e-01,1.324526000000000092e+00,6.613240000000000229e-01,1.001540000000000069e-01,-1.294160000000000033e-01,-5.630469999999999642e-01,-8.946479999999999988e-01,-5.630469999999999642e-01,1.094956000000000040e+00,1.375540999999999903e+00,3.807389999999999941e-01,-1.124217999999999940e+00,2.532010000000000094e-01,6.613240000000000229e-01,8.653859999999999886e-01,-9.201559999999999739e-01,-2.314470000000000138e-01,3.552319999999999922e-01,4.062470000000000248e-01,-5.630469999999999642e-01,-9.966789999999999816e-01,5.592939999999999579e-01,9.929249999999999465e-01,8.908939999999999637e-01,1.069447999999999954e+00,7.378479999999999484e-01,3.807389999999999941e-01,-2.738499999999999962e-02,-1.532342000000000093e+00,-1.506834000000000007e+00,-1.876999999999999979e-03,1.171478999999999937e+00,9.164020000000000499e-01,4.062470000000000248e-01,1.018432999999999922e+00,8.398790000000000422e-01,-1.889450000000000074e+00,-4.644287000000000276e+00,-7.839999999999999747e-02,8.398790000000000422e-01,2.089757999999999782e+00,2.395850999999999953e+00,2.013234999999999886e+00,1.043941000000000008e+00,4.572629999999999750e-01,1.511699999999999988e-01,-8.946479999999999988e-01,-9.711710000000000065e-01,-1.736404000000000059e+00,-5.375400000000000178e-01,6.103089999999999904e-01,1.018432999999999922e+00,3.552319999999999922e-01,-7.416019999999999834e-01,-3.844929999999999737e-01,8.143709999999999560e-01,5.082780000000000076e-01,-1.804310000000000080e-01,4.913900000000000212e-02,3.042159999999999864e-01,1.001540000000000069e-01,8.653859999999999886e-01,6.358169999999999655e-01,4.317549999999999999e-01,3.807389999999999941e-01,-1.039080000000000004e-01,-5.289200000000000151e-02,-1.149726000000000026e+00,4.913900000000000212e-02,2.276930000000000065e-01,4.913900000000000212e-02,4.827699999999999769e-01,1.503079999999999972e+00,1.511699999999999988e-01,-1.876999999999999979e-03,-3.334779999999999966e-01,-1.710895999999999972e+00,1.256619999999999959e-01,1.375540999999999903e+00,1.452064999999999939e+00,4.572629999999999750e-01,9.164020000000000499e-01,-5.289200000000000151e-02,-5.289200000000000151e-02,-3.079700000000000215e-01,-7.671090000000000408e-01,-3.844929999999999737e-01,-8.946479999999999988e-01,3.552319999999999922e-01,6.868319999999999981e-01,9.674169999999999714e-01,9.674169999999999714e-01,3.042159999999999864e-01,1.256619999999999959e-01,2.276930000000000065e-01,3.807389999999999941e-01,1.511699999999999988e-01,-5.630469999999999642e-01,-7.926170000000000160e-01,-2.824619999999999909e-01,-5.289200000000000151e-02,1.069447999999999954e+00,2.532010000000000094e-01,-1.532342000000000093e+00,-6.140630000000000255e-01,1.324526000000000092e+00,1.962220000000000075e+00,1.554095999999999922e+00,-1.039080000000000004e-01,-7.160940000000000083e-01,1.511699999999999988e-01,3.297240000000000171e-01,4.827699999999999769e-01,2.532010000000000094e-01,3.552319999999999922e-01,-7.839999999999999747e-02,-6.905860000000000332e-01,-6.395710000000000006e-01,-9.201559999999999739e-01,-6.650779999999999470e-01,4.062470000000000248e-01,-5.289200000000000151e-02,6.613240000000000229e-01,1.528588000000000058e+00,1.375540999999999903e+00,1.018432999999999922e+00,9.674169999999999714e-01,-2.059390000000000109e-01,-1.047695000000000043e+00,-4.797333000000000069e+00,-7.160940000000000083e-01,1.834681000000000006e+00,1.936711999999999989e+00,1.885696000000000039e+00,1.350033999999999956e+00,-5.289200000000000151e-02,-5.289200000000000151e-02,-1.549230000000000051e-01,-2.059390000000000109e-01,2.363099999999999923e-02,-7.671090000000000408e-01,-8.181249999999999911e-01,2.276930000000000065e-01,-2.738499999999999962e-02,-5.289200000000000151e-02,8.398790000000000422e-01,5.592939999999999579e-01,4.317549999999999999e-01,-4.355089999999999795e-01,-6.140630000000000255e-01,-9.456639999999999491e-01,5.592939999999999579e-01,2.038743000000000194e+00,1.350033999999999956e+00,1.196987000000000023e+00,7.464600000000000402e-02,-5.375400000000000178e-01,-1.302772000000000041e+00,-9.711710000000000065e-01,-7.416019999999999834e-01,3.552319999999999922e-01,6.613240000000000229e-01,1.018432999999999922e+00,1.273509999999999920e+00,3.297240000000000171e-01,2.532010000000000094e-01,8.653859999999999886e-01,-4.355089999999999795e-01,-1.149726000000000026e+00,-5.120320000000000427e-01,-2.569540000000000157e-01,1.766770000000000007e-01,1.018432999999999922e+00,7.464600000000000402e-02,-1.804310000000000080e-01,7.464600000000000402e-02,4.317549999999999999e-01,5.848010000000000153e-01,3.552319999999999922e-01,3.552319999999999922e-01,3.552319999999999922e-01,1.256619999999999959e-01,-6.905860000000000332e-01,-9.966789999999999816e-01,-1.876999999999999979e-03,9.419100000000000250e-01,7.123399999999999732e-01,2.787080000000000113e-01,-2.738499999999999962e-02,4.317549999999999999e-01,4.572629999999999750e-01,-3.334779999999999966e-01,-5.885550000000000503e-01,-5.120320000000000427e-01,4.827699999999999769e-01,4.827699999999999769e-01,7.888629999999999809e-01,5.592939999999999579e-01,1.001540000000000069e-01,1.222495000000000109e+00,1.324526000000000092e+00,-5.375400000000000178e-01,-3.088314000000000004e+00,-2.501635999999999971e+00,-1.549230000000000051e-01,1.554095999999999922e+00,1.783665000000000056e+00,1.120463999999999904e+00,8.908939999999999637e-01,9.929249999999999465e-01,6.613240000000000229e-01,-4.355089999999999795e-01,-1.175232999999999972e+00,-4.610159999999999814e-01,2.021850000000000036e-01,-2.738499999999999962e-02,-1.804310000000000080e-01,9.164020000000000499e-01,1.018432999999999922e+00,5.848010000000000153e-01,-1.251757000000000009e+00,-1.481325999999999921e+00,3.807389999999999941e-01,9.419100000000000250e-01,-1.294160000000000033e-01,7.378479999999999484e-01,6.103089999999999904e-01,3.042159999999999864e-01,6.358169999999999655e-01,9.674169999999999714e-01,3.297240000000000171e-01,-2.824619999999999909e-01,-8.691400000000000237e-01,7.464600000000000402e-02,3.807389999999999941e-01,-1.430311000000000110e+00,-5.120320000000000427e-01,1.145971999999999991e+00,4.827699999999999769e-01,7.378479999999999484e-01,7.633550000000000058e-01,5.337859999999999827e-01,2.363099999999999923e-02,-2.314470000000000138e-01,-1.876999999999999979e-03,1.001540000000000069e-01,1.511699999999999988e-01,-1.294160000000000033e-01,-1.039080000000000004e-01,4.913900000000000212e-02,3.042159999999999864e-01,7.123399999999999732e-01,1.256619999999999959e-01,-1.047695000000000043e+00,1.001540000000000069e-01,6.613240000000000229e-01,5.592939999999999579e-01,6.358169999999999655e-01,2.021850000000000036e-01,2.363099999999999923e-02,-1.549230000000000051e-01,3.807389999999999941e-01,8.398790000000000422e-01,1.511699999999999988e-01,-6.140630000000000255e-01,-8.946479999999999988e-01,-1.876999999999999979e-03,2.276930000000000065e-01,8.398790000000000422e-01,8.653859999999999886e-01,-1.226248999999999922e+00,-3.844929999999999737e-01,6.103089999999999904e-01,8.398790000000000422e-01,3.042159999999999864e-01,2.363099999999999923e-02,3.552319999999999922e-01,6.103089999999999904e-01,4.913900000000000212e-02,-5.885550000000000503e-01,-2.059390000000000109e-01,6.613240000000000229e-01,6.613240000000000229e-01,-1.251757000000000009e+00,-3.844929999999999737e-01,2.787080000000000113e-01,6.868319999999999981e-01,5.592939999999999579e-01,6.103089999999999904e-01,4.317549999999999999e-01,-2.314470000000000138e-01,-5.289200000000000151e-02,3.552319999999999922e-01,7.464600000000000402e-02,3.042159999999999864e-01,5.592939999999999579e-01,7.464600000000000402e-02,-1.404803000000000024e+00,-8.436329999999999663e-01,8.143709999999999560e-01,3.042159999999999864e-01,3.297240000000000171e-01,-3.079700000000000215e-01,-5.289200000000000151e-02,8.143709999999999560e-01,1.554095999999999922e+00,9.929249999999999465e-01,2.021850000000000036e-01,-1.039080000000000004e-01,-1.549230000000000051e-01,-1.804310000000000080e-01,-1.294160000000000033e-01,-2.824619999999999909e-01,-5.630469999999999642e-01,2.363099999999999923e-02,-1.876999999999999979e-03,1.256619999999999959e-01,2.021850000000000036e-01,6.868319999999999981e-01,2.276930000000000065e-01,5.082780000000000076e-01,-6.395710000000000006e-01,-1.039080000000000004e-01,7.633550000000000058e-01,6.613240000000000229e-01,1.018432999999999922e+00,2.532010000000000094e-01,-1.876999999999999979e-03,-1.098710000000000075e+00,-3.589849999999999985e-01,3.552319999999999922e-01,4.062470000000000248e-01,8.143709999999999560e-01,-3.589849999999999985e-01,3.297240000000000171e-01,1.256619999999999959e-01,-3.334779999999999966e-01,-2.824619999999999909e-01,-1.549230000000000051e-01,9.674169999999999714e-01,1.043941000000000008e+00,2.276930000000000065e-01,2.532010000000000094e-01,2.276930000000000065e-01,-9.201559999999999739e-01,-9.201559999999999739e-01,3.552319999999999922e-01,1.145971999999999991e+00,1.375540999999999903e+00,-1.940466000000000024e+00,-1.991481000000000057e+00,2.276930000000000065e-01,1.477572000000000108e+00,1.732650000000000023e+00,1.630619000000000041e+00,6.103089999999999904e-01,-5.289200000000000151e-02,-5.289200000000000151e-02,-1.549230000000000051e-01,-3.589849999999999985e-01,-4.355089999999999795e-01,2.276930000000000065e-01,-5.289200000000000151e-02,-5.289200000000000151e-02,2.363099999999999923e-02,-2.314470000000000138e-01,3.297240000000000171e-01,2.276930000000000065e-01,1.511699999999999988e-01,-1.294160000000000033e-01,-5.885550000000000503e-01,4.572629999999999750e-01,8.398790000000000422e-01,8.143709999999999560e-01,6.358169999999999655e-01,5.337859999999999827e-01,7.633550000000000058e-01,3.807389999999999941e-01,-8.181249999999999911e-01,-5.885550000000000503e-01,-1.175232999999999972e+00,-1.039080000000000004e-01,-1.073201999999999989e+00,-7.416019999999999834e-01,4.572629999999999750e-01,1.681634000000000073e+00,2.395850999999999953e+00,1.783665000000000056e+00,2.021850000000000036e-01,-1.039080000000000004e-01,-5.289200000000000151e-02,-2.569540000000000157e-01,-7.160940000000000083e-01,-3.589849999999999985e-01,-3.334779999999999966e-01,-1.804310000000000080e-01,4.913900000000000212e-02,-4.610159999999999814e-01,-3.079700000000000215e-01,5.592939999999999579e-01,6.103089999999999904e-01,2.532010000000000094e-01,-5.289200000000000151e-02,-9.201559999999999739e-01,1.256619999999999959e-01,1.350033999999999956e+00,1.783665000000000056e+00,6.103089999999999904e-01,-1.876999999999999979e-03,4.913900000000000212e-02,-1.549230000000000051e-01,-6.140630000000000255e-01,2.787080000000000113e-01,-2.314470000000000138e-01,2.363099999999999923e-02,1.069447999999999954e+00,-4.100010000000000043e-01,-5.375400000000000178e-01,6.613240000000000229e-01,5.082780000000000076e-01,1.766770000000000007e-01,-1.876999999999999979e-03,1.766770000000000007e-01,2.363099999999999923e-02,2.363099999999999923e-02,-8.436329999999999663e-01,3.552319999999999922e-01,5.592939999999999579e-01,3.807389999999999941e-01,8.653859999999999886e-01,2.363099999999999923e-02,-4.610159999999999814e-01,-2.059390000000000109e-01,1.511699999999999988e-01,5.337859999999999827e-01,6.358169999999999655e-01,4.572629999999999750e-01,1.511699999999999988e-01,3.552319999999999922e-01,5.592939999999999579e-01,1.001540000000000069e-01,-1.175232999999999972e+00,-1.328279999999999905e+00,7.123399999999999732e-01,9.674169999999999714e-01,6.358169999999999655e-01,1.766770000000000007e-01,-8.946479999999999988e-01,4.913900000000000212e-02,8.653859999999999886e-01,7.123399999999999732e-01,4.913900000000000212e-02,3.807389999999999941e-01,1.766770000000000007e-01,-5.289200000000000151e-02,3.552319999999999922e-01,1.511699999999999988e-01,-2.314470000000000138e-01,-1.804310000000000080e-01,7.464600000000000402e-02,-5.289200000000000151e-02,-5.289200000000000151e-02,-2.314470000000000138e-01,-1.876999999999999979e-03,6.613240000000000229e-01,9.929249999999999465e-01,1.171478999999999937e+00,-3.589849999999999985e-01,-1.455818000000000056e+00,-2.569540000000000157e-01,7.123399999999999732e-01,7.633550000000000058e-01,5.337859999999999827e-01,1.001540000000000069e-01,1.001540000000000069e-01,3.297240000000000171e-01,-1.294160000000000033e-01,-1.039080000000000004e-01,4.572629999999999750e-01,2.532010000000000094e-01,3.552319999999999922e-01,-1.804310000000000080e-01,-5.289200000000000151e-02,2.532010000000000094e-01,-5.289200000000000151e-02,-5.120320000000000427e-01,2.021850000000000036e-01,1.511699999999999988e-01,-3.589849999999999985e-01,5.082780000000000076e-01,6.868319999999999981e-01,5.337859999999999827e-01,3.807389999999999941e-01,3.042159999999999864e-01,5.592939999999999579e-01,7.123399999999999732e-01,-8.436329999999999663e-01,-1.379294999999999938e+00,-6.650779999999999470e-01,3.807389999999999941e-01,9.674169999999999714e-01,1.018432999999999922e+00,7.123399999999999732e-01,4.062470000000000248e-01,2.787080000000000113e-01,-3.079700000000000215e-01,-4.355089999999999795e-01,-3.334779999999999966e-01,-2.314470000000000138e-01,4.913900000000000212e-02,-1.549230000000000051e-01,3.042159999999999864e-01,4.827699999999999769e-01,-2.738499999999999962e-02,6.103089999999999904e-01,1.018432999999999922e+00,4.062470000000000248e-01,-1.098710000000000075e+00,-8.691400000000000237e-01,9.164020000000000499e-01,8.908939999999999637e-01,1.196987000000000023e+00,-1.328279999999999905e+00,-3.589849999999999985e-01,9.419100000000000250e-01,8.398790000000000422e-01,5.082780000000000076e-01,-2.569540000000000157e-01,-1.876999999999999979e-03,-5.120320000000000427e-01,-4.355089999999999795e-01,5.337859999999999827e-01,6.868319999999999981e-01,4.827699999999999769e-01,4.913900000000000212e-02,-1.294160000000000033e-01,-5.289200000000000151e-02,1.256619999999999959e-01,-4.100010000000000043e-01,-5.885550000000000503e-01,3.552319999999999922e-01,7.378479999999999484e-01,7.123399999999999732e-01,9.419100000000000250e-01,2.532010000000000094e-01,-1.804310000000000080e-01,-6.395710000000000006e-01,-3.334779999999999966e-01,3.552319999999999922e-01,3.552319999999999922e-01,7.633550000000000058e-01,3.297240000000000171e-01,-1.549230000000000051e-01,2.021850000000000036e-01,2.532010000000000094e-01,-1.876999999999999979e-03,-1.039080000000000004e-01,-1.549230000000000051e-01,-2.569540000000000157e-01,5.082780000000000076e-01,7.888629999999999809e-01,8.653859999999999886e-01,-1.039080000000000004e-01,-4.865240000000000120e-01,-1.430311000000000110e+00,-4.610159999999999814e-01,1.375540999999999903e+00,1.579603000000000090e+00,5.592939999999999579e-01,-3.844929999999999737e-01,-1.549230000000000051e-01,2.363099999999999923e-02,3.552319999999999922e-01,2.787080000000000113e-01,1.511699999999999988e-01,2.532010000000000094e-01,1.766770000000000007e-01,-1.039080000000000004e-01,-4.865240000000000120e-01,-5.885550000000000503e-01,-4.355089999999999795e-01,1.001540000000000069e-01,5.848010000000000153e-01,6.103089999999999904e-01,8.653859999999999886e-01,4.062470000000000248e-01,2.021850000000000036e-01,2.021850000000000036e-01,-2.569540000000000157e-01,3.552319999999999922e-01,-4.355089999999999795e-01,-1.804310000000000080e-01,-2.314470000000000138e-01,7.633550000000000058e-01,7.123399999999999732e-01,6.868319999999999981e-01,-1.549230000000000051e-01,-7.160940000000000083e-01,1.256619999999999959e-01,8.143709999999999560e-01,1.766770000000000007e-01,1.766770000000000007e-01,2.532010000000000094e-01,4.062470000000000248e-01,-5.885550000000000503e-01,-1.328279999999999905e+00,2.021850000000000036e-01,6.358169999999999655e-01,2.532010000000000094e-01,-4.610159999999999814e-01,1.256619999999999959e-01,1.018432999999999922e+00,8.143709999999999560e-01,7.888629999999999809e-01,6.868319999999999981e-01,1.001540000000000069e-01,-5.289200000000000151e-02,-2.824619999999999909e-01,-4.610159999999999814e-01,-5.289200000000000151e-02,2.363099999999999923e-02,-2.824619999999999909e-01,2.363099999999999923e-02,1.511699999999999988e-01,4.062470000000000248e-01,4.572629999999999750e-01,4.572629999999999750e-01,-1.876999999999999979e-03,-1.876999999999999979e-03,2.787080000000000113e-01,1.256619999999999959e-01,1.256619999999999959e-01,2.276930000000000065e-01,2.532010000000000094e-01,2.276930000000000065e-01,3.807389999999999941e-01,2.276930000000000065e-01,-1.294160000000000033e-01,-1.294160000000000033e-01,1.511699999999999988e-01,-2.738499999999999962e-02,4.062470000000000248e-01,2.787080000000000113e-01,-4.610159999999999814e-01,6.613240000000000229e-01,7.123399999999999732e-01,-1.804310000000000080e-01,-5.289200000000000151e-02,-7.839999999999999747e-02,-1.039080000000000004e-01,3.807389999999999941e-01,2.532010000000000094e-01,3.297240000000000171e-01,2.787080000000000113e-01,-1.549230000000000051e-01,1.511699999999999988e-01,1.766770000000000007e-01,-7.160940000000000083e-01,-5.289200000000000151e-02,5.592939999999999579e-01,7.633550000000000058e-01,2.363099999999999923e-02,1.511699999999999988e-01,2.787080000000000113e-01,2.532010000000000094e-01,-7.926170000000000160e-01,4.913900000000000212e-02,6.358169999999999655e-01,7.378479999999999484e-01,6.103089999999999904e-01,2.021850000000000036e-01,-2.824619999999999909e-01,-4.355089999999999795e-01,-5.375400000000000178e-01,3.807389999999999941e-01,5.082780000000000076e-01,4.572629999999999750e-01,1.001540000000000069e-01,-1.876999999999999979e-03,1.766770000000000007e-01,7.464600000000000402e-02,4.317549999999999999e-01,2.276930000000000065e-01,1.766770000000000007e-01,-1.098710000000000075e+00,-8.436329999999999663e-01,4.062470000000000248e-01,6.868319999999999981e-01,4.572629999999999750e-01,6.358169999999999655e-01,1.273509999999999920e+00,1.145971999999999991e+00,-1.039080000000000004e-01,-3.589849999999999985e-01,-7.416019999999999834e-01,2.363099999999999923e-02,4.317549999999999999e-01,1.766770000000000007e-01,-2.059390000000000109e-01,2.363099999999999923e-02,1.256619999999999959e-01,1.001540000000000069e-01,-1.294160000000000033e-01,3.807389999999999941e-01,2.276930000000000065e-01,-2.569540000000000157e-01,-7.839999999999999747e-02,4.827699999999999769e-01,9.164020000000000499e-01,7.123399999999999732e-01,1.001540000000000069e-01,7.888629999999999809e-01,-1.226248999999999922e+00,-3.589849999999999985e-01,2.532010000000000094e-01,8.653859999999999886e-01,3.552319999999999922e-01,1.001540000000000069e-01,4.913900000000000212e-02,-7.839999999999999747e-02,-2.824619999999999909e-01,-3.589849999999999985e-01,2.787080000000000113e-01,6.868319999999999981e-01,6.613240000000000229e-01,3.297240000000000171e-01,-2.738499999999999962e-02,-4.865240000000000120e-01,-3.844929999999999737e-01,-5.289200000000000151e-02,1.511699999999999988e-01,5.337859999999999827e-01,4.572629999999999750e-01,7.123399999999999732e-01,-1.039080000000000004e-01,-2.059390000000000109e-01,-1.804310000000000080e-01,2.532010000000000094e-01,4.317549999999999999e-01,2.276930000000000065e-01,-1.294160000000000033e-01,1.511699999999999988e-01,2.532010000000000094e-01,5.592939999999999579e-01,3.552319999999999922e-01,1.001540000000000069e-01,-2.738499999999999962e-02,-1.549230000000000051e-01,-1.876999999999999979e-03,-1.876999999999999979e-03,-1.549230000000000051e-01,3.297240000000000171e-01,4.913900000000000212e-02,-2.314470000000000138e-01,2.276930000000000065e-01,9.419100000000000250e-01,1.001540000000000069e-01,4.913900000000000212e-02,-4.355089999999999795e-01,5.848010000000000153e-01,1.069447999999999954e+00,4.913900000000000212e-02,-9.966789999999999816e-01,-4.610159999999999814e-01,3.807389999999999941e-01,1.145971999999999991e+00,1.145971999999999991e+00,-6.140630000000000255e-01,-4.610159999999999814e-01,-5.289200000000000151e-02,-1.876999999999999979e-03,4.062470000000000248e-01,4.572629999999999750e-01,1.766770000000000007e-01,4.572629999999999750e-01,1.766770000000000007e-01,1.001540000000000069e-01,-1.294160000000000033e-01,-4.100010000000000043e-01,-7.839999999999999747e-02,1.256619999999999959e-01,2.787080000000000113e-01,7.464600000000000402e-02,3.297240000000000171e-01,6.358169999999999655e-01,2.363099999999999923e-02,1.256619999999999959e-01,7.464600000000000402e-02,-5.289200000000000151e-02,3.552319999999999922e-01,7.123399999999999732e-01,6.613240000000000229e-01,1.511699999999999988e-01,4.062470000000000248e-01,7.464600000000000402e-02,-1.549230000000000051e-01,-5.885550000000000503e-01,-8.436329999999999663e-01,-1.804310000000000080e-01,4.572629999999999750e-01,5.848010000000000153e-01,2.532010000000000094e-01,4.062470000000000248e-01,5.592939999999999579e-01,1.766770000000000007e-01,-1.549230000000000051e-01,-2.738499999999999962e-02,4.913900000000000212e-02,3.297240000000000171e-01,6.868319999999999981e-01,-1.149726000000000026e+00,-5.120320000000000427e-01,7.378479999999999484e-01,9.164020000000000499e-01,5.337859999999999827e-01,2.532010000000000094e-01,-4.355089999999999795e-01,-4.100010000000000043e-01,7.464600000000000402e-02,2.532010000000000094e-01,8.143709999999999560e-01,9.674169999999999714e-01,4.317549999999999999e-01,-3.334779999999999966e-01,-1.608864999999999990e+00,-2.314470000000000138e-01,3.552319999999999922e-01,8.398790000000000422e-01,4.572629999999999750e-01,3.552319999999999922e-01,3.807389999999999941e-01,2.276930000000000065e-01,3.552319999999999922e-01,4.913900000000000212e-02,-1.659880000000000022e+00,-7.671090000000000408e-01,1.511699999999999988e-01,6.868319999999999981e-01,1.069447999999999954e+00,1.094956000000000040e+00,1.120463999999999904e+00,8.143709999999999560e-01,-5.289200000000000151e-02,-1.277263999999999955e+00,-9.711710000000000065e-01,-1.804310000000000080e-01,5.082780000000000076e-01,5.592939999999999579e-01,4.572629999999999750e-01,3.807389999999999941e-01,3.042159999999999864e-01,2.276930000000000065e-01,-4.355089999999999795e-01,-7.160940000000000083e-01,-3.079700000000000215e-01,2.021850000000000036e-01,7.123399999999999732e-01,6.358169999999999655e-01,2.532010000000000094e-01,4.062470000000000248e-01,7.464600000000000402e-02,4.572629999999999750e-01,-5.289200000000000151e-02,-3.844929999999999737e-01,-2.569540000000000157e-01,2.532010000000000094e-01,4.062470000000000248e-01,4.827699999999999769e-01,1.511699999999999988e-01,-5.289200000000000151e-02,4.913900000000000212e-02,-5.120320000000000427e-01,7.464600000000000402e-02,6.613240000000000229e-01,1.043941000000000008e+00,5.592939999999999579e-01,5.592939999999999579e-01,1.256619999999999959e-01,-1.583356999999999903e+00,-1.073201999999999989e+00,3.552319999999999922e-01,2.363099999999999923e-02,1.222495000000000109e+00,1.426557000000000075e+00,8.143709999999999560e-01,2.532010000000000094e-01,-1.549230000000000051e-01,-1.039080000000000004e-01,-5.375400000000000178e-01,-1.226248999999999922e+00,-2.314470000000000138e-01,3.807389999999999941e-01,5.082780000000000076e-01,2.787080000000000113e-01,4.062470000000000248e-01,2.532010000000000094e-01,2.787080000000000113e-01,3.297240000000000171e-01,1.256619999999999959e-01,-1.039080000000000004e-01,2.363099999999999923e-02,2.787080000000000113e-01,3.807389999999999941e-01,7.464600000000000402e-02,-3.334779999999999966e-01,2.276930000000000065e-01,2.787080000000000113e-01,2.363099999999999923e-02,5.592939999999999579e-01,5.848010000000000153e-01,4.913900000000000212e-02,-1.039080000000000004e-01,-6.395710000000000006e-01,-8.691400000000000237e-01,-6.395710000000000006e-01,9.164020000000000499e-01,1.196987000000000023e+00,9.929249999999999465e-01,6.613240000000000229e-01,3.042159999999999864e-01,4.572629999999999750e-01,-5.375400000000000178e-01,-7.416019999999999834e-01,-5.289200000000000151e-02,4.913900000000000212e-02,4.062470000000000248e-01,4.913900000000000212e-02,-2.738499999999999962e-02,1.511699999999999988e-01,1.256619999999999959e-01,3.297240000000000171e-01,4.062470000000000248e-01,4.913900000000000212e-02,1.001540000000000069e-01,-3.589849999999999985e-01,-5.630469999999999642e-01,2.363099999999999923e-02,7.888629999999999809e-01,8.398790000000000422e-01,8.398790000000000422e-01,5.082780000000000076e-01,1.766770000000000007e-01,-5.375400000000000178e-01,3.552319999999999922e-01,1.766770000000000007e-01,1.511699999999999988e-01,-5.885550000000000503e-01,-6.650779999999999470e-01,1.511699999999999988e-01,3.042159999999999864e-01,-1.876999999999999979e-03,3.297240000000000171e-01,4.913900000000000212e-02,6.868319999999999981e-01,9.419100000000000250e-01,7.378479999999999484e-01,-2.569540000000000157e-01,-1.761911000000000005e+00,-4.865240000000000120e-01,3.552319999999999922e-01,7.378479999999999484e-01,3.042159999999999864e-01,-1.549230000000000051e-01,7.123399999999999732e-01,9.164020000000000499e-01,8.143709999999999560e-01,1.766770000000000007e-01,-1.804310000000000080e-01,-1.876999999999999979e-03,2.363099999999999923e-02,-4.355089999999999795e-01,-9.711710000000000065e-01,-5.375400000000000178e-01,3.042159999999999864e-01,5.592939999999999579e-01,6.358169999999999655e-01,8.398790000000000422e-01,5.337859999999999827e-01,2.532010000000000094e-01,7.464600000000000402e-02,-7.839999999999999747e-02,-1.549230000000000051e-01,2.787080000000000113e-01,2.276930000000000065e-01,3.042159999999999864e-01,1.511699999999999988e-01,-5.289200000000000151e-02,-5.630469999999999642e-01,-5.289200000000000151e-02,-4.100010000000000043e-01,3.042159999999999864e-01,9.674169999999999714e-01,4.317549999999999999e-01,3.807389999999999941e-01,1.511699999999999988e-01,4.062470000000000248e-01,5.848010000000000153e-01,1.511699999999999988e-01,-1.876999999999999979e-03,-8.946479999999999988e-01,-3.589849999999999985e-01,2.021850000000000036e-01,3.807389999999999941e-01,4.572629999999999750e-01,2.787080000000000113e-01,5.592939999999999579e-01,4.572629999999999750e-01,7.464600000000000402e-02,-3.589849999999999985e-01,-1.073201999999999989e+00,-4.355089999999999795e-01,5.592939999999999579e-01,1.069447999999999954e+00,5.592939999999999579e-01,-1.804310000000000080e-01,2.276930000000000065e-01,2.787080000000000113e-01,2.363099999999999923e-02,2.276930000000000065e-01,-1.876999999999999979e-03,1.511699999999999988e-01,4.062470000000000248e-01,-2.569540000000000157e-01,1.001540000000000069e-01,3.552319999999999922e-01,3.552319999999999922e-01,1.511699999999999988e-01,-7.839999999999999747e-02,-1.549230000000000051e-01,-4.355089999999999795e-01,5.592939999999999579e-01,9.929249999999999465e-01,1.256619999999999959e-01,-3.589849999999999985e-01,-1.022186999999999957e+00,2.021850000000000036e-01,9.674169999999999714e-01,7.378479999999999484e-01,6.103089999999999904e-01,4.913900000000000212e-02,-1.876999999999999979e-03,1.766770000000000007e-01,-2.569540000000000157e-01,-4.610159999999999814e-01,-1.549230000000000051e-01,5.337859999999999827e-01,4.062470000000000248e-01,7.464600000000000402e-02,-7.839999999999999747e-02,-1.294160000000000033e-01,-1.549230000000000051e-01,1.001540000000000069e-01,3.552319999999999922e-01,-1.876999999999999979e-03,-2.569540000000000157e-01,6.613240000000000229e-01,1.094956000000000040e+00,7.378479999999999484e-01,7.464600000000000402e-02,2.021850000000000036e-01,-1.549230000000000051e-01,1.256619999999999959e-01,-2.738499999999999962e-02,-8.946479999999999988e-01,-2.059390000000000109e-01,-2.824619999999999909e-01,5.848010000000000153e-01,8.653859999999999886e-01,7.123399999999999732e-01,-1.804310000000000080e-01,-1.876999999999999979e-03,2.276930000000000065e-01,-2.738499999999999962e-02,-5.289200000000000151e-02,3.807389999999999941e-01,4.572629999999999750e-01,2.276930000000000065e-01,2.276930000000000065e-01,6.358169999999999655e-01,7.378479999999999484e-01,-1.804310000000000080e-01,-1.277263999999999955e+00,-7.671090000000000408e-01,7.123399999999999732e-01,4.913900000000000212e-02,2.532010000000000094e-01,5.082780000000000076e-01,4.062470000000000248e-01,1.511699999999999988e-01,4.062470000000000248e-01,2.787080000000000113e-01,1.256619999999999959e-01,3.807389999999999941e-01,-1.876999999999999979e-03,-1.876999999999999979e-03,4.913900000000000212e-02,-4.355089999999999795e-01,1.511699999999999988e-01,2.532010000000000094e-01,1.256619999999999959e-01,5.082780000000000076e-01,5.082780000000000076e-01,1.256619999999999959e-01,2.021850000000000036e-01,1.766770000000000007e-01,2.532010000000000094e-01,-2.569540000000000157e-01,-4.100010000000000043e-01,4.913900000000000212e-02,1.511699999999999988e-01,1.511699999999999988e-01,4.572629999999999750e-01,4.062470000000000248e-01,5.848010000000000153e-01,5.337859999999999827e-01,3.552319999999999922e-01,-1.039080000000000004e-01,-2.059390000000000109e-01,-3.844929999999999737e-01,1.001540000000000069e-01,1.766770000000000007e-01,-5.289200000000000151e-02,1.766770000000000007e-01,3.042159999999999864e-01,5.337859999999999827e-01,2.276930000000000065e-01,2.532010000000000094e-01,-1.039080000000000004e-01,-1.876999999999999979e-03,-5.289200000000000151e-02,1.001540000000000069e-01,6.103089999999999904e-01,-2.738499999999999962e-02,-3.079700000000000215e-01,2.787080000000000113e-01,7.123399999999999732e-01,4.827699999999999769e-01,4.572629999999999750e-01,-1.549230000000000051e-01,-3.844929999999999737e-01,7.464600000000000402e-02,1.001540000000000069e-01,1.001540000000000069e-01,3.297240000000000171e-01,2.787080000000000113e-01,-3.334779999999999966e-01,-6.395710000000000006e-01,-7.839999999999999747e-02,4.572629999999999750e-01,3.042159999999999864e-01,3.042159999999999864e-01,7.633550000000000058e-01,5.337859999999999827e-01,1.001540000000000069e-01,-1.549230000000000051e-01,3.552319999999999922e-01,7.464600000000000402e-02,2.363099999999999923e-02,-2.314470000000000138e-01,-3.334779999999999966e-01,-2.824619999999999909e-01,4.062470000000000248e-01,6.358169999999999655e-01,3.042159999999999864e-01,2.787080000000000113e-01,4.317549999999999999e-01,3.552319999999999922e-01,-7.839999999999999747e-02,-3.079700000000000215e-01,-3.334779999999999966e-01,-5.289200000000000151e-02,4.572629999999999750e-01,4.572629999999999750e-01,3.297240000000000171e-01,1.511699999999999988e-01,-2.569540000000000157e-01,2.363099999999999923e-02,2.532010000000000094e-01,4.062470000000000248e-01,6.613240000000000229e-01,3.042159999999999864e-01,-5.289200000000000151e-02,-8.436329999999999663e-01,-2.569540000000000157e-01,1.766770000000000007e-01,8.653859999999999886e-01,5.337859999999999827e-01,5.337859999999999827e-01,4.062470000000000248e-01,7.464600000000000402e-02,-8.181249999999999911e-01,-2.824619999999999909e-01,-3.079700000000000215e-01,-4.610159999999999814e-01,7.633550000000000058e-01,9.674169999999999714e-01,9.419100000000000250e-01,5.337859999999999827e-01,-5.289200000000000151e-02,-4.610159999999999814e-01,7.464600000000000402e-02,1.001540000000000069e-01,2.363099999999999923e-02,-7.839999999999999747e-02,4.913900000000000212e-02,2.276930000000000065e-01,1.001540000000000069e-01,3.552319999999999922e-01,2.532010000000000094e-01,1.256619999999999959e-01,-2.738499999999999962e-02,1.001540000000000069e-01,1.256619999999999959e-01,4.572629999999999750e-01,-3.334779999999999966e-01,4.913900000000000212e-02,2.532010000000000094e-01,7.123399999999999732e-01,2.021850000000000036e-01,4.913900000000000212e-02,3.807389999999999941e-01,2.532010000000000094e-01,-7.839999999999999747e-02,1.766770000000000007e-01,2.276930000000000065e-01,2.787080000000000113e-01,-1.294160000000000033e-01,-5.630469999999999642e-01,-1.549230000000000051e-01,-1.876999999999999979e-03,3.297240000000000171e-01,6.358169999999999655e-01,8.143709999999999560e-01,7.464600000000000402e-02,4.913900000000000212e-02,-1.039080000000000004e-01,-1.549230000000000051e-01,4.572629999999999750e-01,5.848010000000000153e-01,4.913900000000000212e-02,2.787080000000000113e-01,-7.839999999999999747e-02,2.787080000000000113e-01,3.807389999999999941e-01,1.511699999999999988e-01,-2.824619999999999909e-01,-2.738499999999999962e-02,3.807389999999999941e-01,-1.804310000000000080e-01,-2.314470000000000138e-01,1.511699999999999988e-01,2.787080000000000113e-01,3.297240000000000171e-01,9.164020000000000499e-01,4.572629999999999750e-01,-5.289200000000000151e-02,-1.294160000000000033e-01,2.363099999999999923e-02,-1.039080000000000004e-01,3.042159999999999864e-01,2.787080000000000113e-01,-1.294160000000000033e-01,2.363099999999999923e-02,-3.589849999999999985e-01,1.511699999999999988e-01,5.337859999999999827e-01,3.807389999999999941e-01,-5.289200000000000151e-02,2.532010000000000094e-01,1.511699999999999988e-01,-1.876999999999999979e-03,2.532010000000000094e-01,3.042159999999999864e-01,5.848010000000000153e-01,3.807389999999999941e-01,2.021850000000000036e-01,-4.865240000000000120e-01,3.552319999999999922e-01,4.913900000000000212e-02,-1.549230000000000051e-01,-1.294160000000000033e-01,-2.059390000000000109e-01,-1.804310000000000080e-01,4.913900000000000212e-02,5.848010000000000153e-01,8.143709999999999560e-01,4.572629999999999750e-01,3.042159999999999864e-01,-7.839999999999999747e-02,-1.294160000000000033e-01,2.021850000000000036e-01,-5.289200000000000151e-02,2.787080000000000113e-01,2.532010000000000094e-01,1.256619999999999959e-01,1.001540000000000069e-01,-5.289200000000000151e-02,7.464600000000000402e-02,7.464600000000000402e-02,2.276930000000000065e-01,2.021850000000000036e-01,1.256619999999999959e-01,1.001540000000000069e-01,4.827699999999999769e-01,6.103089999999999904e-01,-5.289200000000000151e-02,-6.140630000000000255e-01,-1.876999999999999979e-03,2.532010000000000094e-01,2.021850000000000036e-01,4.572629999999999750e-01,4.827699999999999769e-01,2.787080000000000113e-01,2.276930000000000065e-01,4.913900000000000212e-02,-1.876999999999999979e-03,-3.079700000000000215e-01,-5.289200000000000151e-02,1.766770000000000007e-01,-3.589849999999999985e-01,-3.589849999999999985e-01,8.908939999999999637e-01,1.324526000000000092e+00,5.592939999999999579e-01,-4.355089999999999795e-01,-5.375400000000000178e-01,2.787080000000000113e-01,4.317549999999999999e-01,-1.804310000000000080e-01,2.021850000000000036e-01,4.827699999999999769e-01,-3.079700000000000215e-01,-1.804310000000000080e-01,6.868319999999999981e-01,7.378479999999999484e-01,-1.804310000000000080e-01,2.021850000000000036e-01,1.511699999999999988e-01,-1.039080000000000004e-01,4.913900000000000212e-02,-6.140630000000000255e-01,2.363099999999999923e-02,6.868319999999999981e-01,6.103089999999999904e-01,4.827699999999999769e-01,4.317549999999999999e-01,3.042159999999999864e-01,-2.824619999999999909e-01,-4.100010000000000043e-01,-1.294160000000000033e-01,2.787080000000000113e-01,-2.738499999999999962e-02,-1.876999999999999979e-03,1.001540000000000069e-01,3.042159999999999864e-01,6.358169999999999655e-01,1.511699999999999988e-01,-1.549230000000000051e-01,5.082780000000000076e-01,4.062470000000000248e-01,7.123399999999999732e-01,2.021850000000000036e-01,-1.175232999999999972e+00,-7.416019999999999834e-01,2.021850000000000036e-01,7.378479999999999484e-01,8.143709999999999560e-01,4.827699999999999769e-01,7.464600000000000402e-02,4.913900000000000212e-02,-2.569540000000000157e-01,-2.738499999999999962e-02,-5.289200000000000151e-02,3.042159999999999864e-01,4.913900000000000212e-02,2.021850000000000036e-01,5.848010000000000153e-01,4.317549999999999999e-01,1.256619999999999959e-01,-2.059390000000000109e-01,-1.549230000000000051e-01,2.532010000000000094e-01,4.913900000000000212e-02,1.256619999999999959e-01,3.807389999999999941e-01,-5.289200000000000151e-02,-7.839999999999999747e-02,4.062470000000000248e-01,5.592939999999999579e-01,-2.059390000000000109e-01,-2.569540000000000157e-01,1.511699999999999988e-01,3.042159999999999864e-01,3.807389999999999941e-01,1.766770000000000007e-01,4.913900000000000212e-02,2.276930000000000065e-01,1.511699999999999988e-01,2.276930000000000065e-01,2.787080000000000113e-01,-2.738499999999999962e-02,2.021850000000000036e-01,2.276930000000000065e-01,1.766770000000000007e-01,2.363099999999999923e-02,-3.589849999999999985e-01,-1.804310000000000080e-01,5.337859999999999827e-01,4.062470000000000248e-01,-5.289200000000000151e-02,3.297240000000000171e-01,2.787080000000000113e-01,1.001540000000000069e-01,-5.289200000000000151e-02,2.021850000000000036e-01,2.021850000000000036e-01,-2.824619999999999909e-01,1.511699999999999988e-01,1.766770000000000007e-01,1.766770000000000007e-01,2.021850000000000036e-01,1.766770000000000007e-01,2.363099999999999923e-02,-1.804310000000000080e-01,4.913900000000000212e-02,4.317549999999999999e-01,7.888629999999999809e-01,5.848010000000000153e-01,1.511699999999999988e-01,-2.738499999999999962e-02,-1.039080000000000004e-01,-2.059390000000000109e-01,-1.804310000000000080e-01,2.787080000000000113e-01,4.572629999999999750e-01,4.572629999999999750e-01,-2.824619999999999909e-01,4.913900000000000212e-02,6.103089999999999904e-01,2.532010000000000094e-01,-1.804310000000000080e-01,-6.905860000000000332e-01,-6.140630000000000255e-01,3.552319999999999922e-01,9.164020000000000499e-01,8.398790000000000422e-01,7.378479999999999484e-01,5.337859999999999827e-01,-5.289200000000000151e-02,-2.569540000000000157e-01,-3.589849999999999985e-01,2.363099999999999923e-02,2.021850000000000036e-01,3.807389999999999941e-01,7.464600000000000402e-02,-1.549230000000000051e-01,-1.804310000000000080e-01,-5.289200000000000151e-02,-1.039080000000000004e-01,1.511699999999999988e-01,3.297240000000000171e-01,4.317549999999999999e-01,4.572629999999999750e-01,4.572629999999999750e-01,5.337859999999999827e-01,5.848010000000000153e-01,4.913900000000000212e-02,-8.691400000000000237e-01,-4.610159999999999814e-01,4.062470000000000248e-01,3.807389999999999941e-01,1.511699999999999988e-01,4.062470000000000248e-01,4.827699999999999769e-01,-3.334779999999999966e-01,-1.804310000000000080e-01,2.532010000000000094e-01,3.297240000000000171e-01,7.464600000000000402e-02,1.001540000000000069e-01,2.363099999999999923e-02,4.827699999999999769e-01,7.633550000000000058e-01,5.592939999999999579e-01,7.464600000000000402e-02,-5.120320000000000427e-01,-4.100010000000000043e-01,-1.039080000000000004e-01,7.464600000000000402e-02,3.807389999999999941e-01,1.001540000000000069e-01,-4.355089999999999795e-01,4.062470000000000248e-01,8.653859999999999886e-01,4.572629999999999750e-01,-1.039080000000000004e-01,-3.334779999999999966e-01,-1.039080000000000004e-01,3.042159999999999864e-01,2.532010000000000094e-01,2.021850000000000036e-01,3.807389999999999941e-01,2.276930000000000065e-01,-7.839999999999999747e-02,-1.876999999999999979e-03,4.062470000000000248e-01,2.276930000000000065e-01,-3.334779999999999966e-01,3.807389999999999941e-01,3.552319999999999922e-01,-3.334779999999999966e-01,1.511699999999999988e-01,2.021850000000000036e-01,2.363099999999999923e-02,4.913900000000000212e-02,6.358169999999999655e-01,4.572629999999999750e-01,7.378479999999999484e-01,2.787080000000000113e-01,-7.839999999999999747e-02,2.363099999999999923e-02,-2.569540000000000157e-01,-1.804310000000000080e-01,-5.289200000000000151e-02,4.913900000000000212e-02,4.827699999999999769e-01,5.337859999999999827e-01,3.297240000000000171e-01,1.766770000000000007e-01,-1.294160000000000033e-01,1.256619999999999959e-01,3.297240000000000171e-01,-4.865240000000000120e-01,-1.294160000000000033e-01,2.276930000000000065e-01,2.021850000000000036e-01,-2.738499999999999962e-02,2.363099999999999923e-02,3.042159999999999864e-01,5.082780000000000076e-01,4.572629999999999750e-01,-2.738499999999999962e-02,7.464600000000000402e-02,7.464600000000000402e-02,2.021850000000000036e-01,6.358169999999999655e-01,4.062470000000000248e-01,-2.059390000000000109e-01,7.464600000000000402e-02,1.511699999999999988e-01,-3.079700000000000215e-01,-5.630469999999999642e-01,-5.630469999999999642e-01,2.021850000000000036e-01,5.337859999999999827e-01,8.908939999999999637e-01,7.633550000000000058e-01,5.337859999999999827e-01,2.363099999999999923e-02,1.511699999999999988e-01,-1.294160000000000033e-01,-3.334779999999999966e-01,4.913900000000000212e-02,2.363099999999999923e-02,2.021850000000000036e-01,4.827699999999999769e-01,-1.294160000000000033e-01,-5.289200000000000151e-02,3.042159999999999864e-01,4.317549999999999999e-01,3.807389999999999941e-01,4.913900000000000212e-02,-6.905860000000000332e-01,2.363099999999999923e-02,7.464600000000000402e-02,3.297240000000000171e-01,6.613240000000000229e-01,4.572629999999999750e-01,-5.289200000000000151e-02,-1.039080000000000004e-01,3.042159999999999864e-01,-2.738499999999999962e-02,1.001540000000000069e-01,5.082780000000000076e-01,3.042159999999999864e-01,-7.839999999999999747e-02,1.256619999999999959e-01,1.256619999999999959e-01,1.256619999999999959e-01,-1.804310000000000080e-01,1.766770000000000007e-01,2.532010000000000094e-01,4.913900000000000212e-02,4.062470000000000248e-01,3.807389999999999941e-01,2.021850000000000036e-01,1.511699999999999988e-01,-5.289200000000000151e-02,-7.839999999999999747e-02,-7.839999999999999747e-02,-2.569540000000000157e-01,5.592939999999999579e-01,6.103089999999999904e-01,6.868319999999999981e-01,-5.120320000000000427e-01,-8.181249999999999911e-01,-1.804310000000000080e-01,7.123399999999999732e-01,5.592939999999999579e-01,2.532010000000000094e-01,5.082780000000000076e-01,2.532010000000000094e-01,4.572629999999999750e-01,6.103089999999999904e-01,1.511699999999999988e-01,-2.738499999999999962e-02,-1.294160000000000033e-01,4.913900000000000212e-02,1.001540000000000069e-01,4.913900000000000212e-02,-5.289200000000000151e-02,-4.355089999999999795e-01,1.256619999999999959e-01,3.297240000000000171e-01,1.001540000000000069e-01,2.532010000000000094e-01,3.552319999999999922e-01,3.552319999999999922e-01,-1.876999999999999979e-03,2.363099999999999923e-02,3.042159999999999864e-01,-2.314470000000000138e-01,3.297240000000000171e-01,4.572629999999999750e-01,9.419100000000000250e-01,9.419100000000000250e-01,1.001540000000000069e-01,-7.160940000000000083e-01,-5.885550000000000503e-01,-3.589849999999999985e-01,2.276930000000000065e-01,6.358169999999999655e-01,6.103089999999999904e-01,-2.569540000000000157e-01,-1.294160000000000033e-01,4.062470000000000248e-01,2.363099999999999923e-02,5.337859999999999827e-01,4.827699999999999769e-01,-7.839999999999999747e-02,-7.839999999999999747e-02,-1.876999999999999979e-03,4.913900000000000212e-02,4.913900000000000212e-02,2.532010000000000094e-01,2.021850000000000036e-01,-3.589849999999999985e-01,7.464600000000000402e-02,7.464600000000000402e-02,2.532010000000000094e-01,2.787080000000000113e-01,6.103089999999999904e-01,1.171478999999999937e+00,4.572629999999999750e-01,-7.926170000000000160e-01,-3.334779999999999966e-01,-4.355089999999999795e-01,-1.039080000000000004e-01,8.398790000000000422e-01,6.613240000000000229e-01,5.082780000000000076e-01,2.021850000000000036e-01,3.042159999999999864e-01,2.276930000000000065e-01,-5.289200000000000151e-02,2.532010000000000094e-01,-1.876999999999999979e-03,-5.120320000000000427e-01,-3.844929999999999737e-01,-7.160940000000000083e-01,2.363099999999999923e-02,4.572629999999999750e-01,1.196987000000000023e+00,6.103089999999999904e-01,-3.844929999999999737e-01,-1.549230000000000051e-01,2.021850000000000036e-01,9.419100000000000250e-01,5.592939999999999579e-01,1.256619999999999959e-01,2.276930000000000065e-01,-1.039080000000000004e-01,-1.294160000000000033e-01,-1.549230000000000051e-01,1.511699999999999988e-01,1.511699999999999988e-01,6.613240000000000229e-01,3.297240000000000171e-01,-1.294160000000000033e-01,-1.294160000000000033e-01,-1.876999999999999979e-03,1.766770000000000007e-01,2.787080000000000113e-01,3.297240000000000171e-01,-2.738499999999999962e-02,3.042159999999999864e-01,3.807389999999999941e-01,2.532010000000000094e-01,-1.804310000000000080e-01,-5.289200000000000151e-02,4.062470000000000248e-01,-2.314470000000000138e-01,-8.691400000000000237e-01,-2.314470000000000138e-01,6.103089999999999904e-01,1.018432999999999922e+00,9.419100000000000250e-01,4.572629999999999750e-01,4.317549999999999999e-01,2.021850000000000036e-01,-2.738499999999999962e-02,-5.375400000000000178e-01,-5.289200000000000151e-02,4.913900000000000212e-02,-2.059390000000000109e-01,-4.610159999999999814e-01,-2.569540000000000157e-01,3.807389999999999941e-01,9.674169999999999714e-01,7.123399999999999732e-01,5.082780000000000076e-01,-1.876999999999999979e-03,-3.589849999999999985e-01,-6.905860000000000332e-01,2.787080000000000113e-01,5.082780000000000076e-01,3.807389999999999941e-01,3.552319999999999922e-01,3.552319999999999922e-01,2.787080000000000113e-01,7.464600000000000402e-02,-7.839999999999999747e-02,2.363099999999999923e-02,4.913900000000000212e-02,3.042159999999999864e-01,4.913900000000000212e-02,-7.839999999999999747e-02,2.787080000000000113e-01,2.787080000000000113e-01,1.766770000000000007e-01,2.532010000000000094e-01,2.021850000000000036e-01,3.552319999999999922e-01,2.276930000000000065e-01,-1.294160000000000033e-01,-3.334779999999999966e-01,-7.839999999999999747e-02,2.276930000000000065e-01,4.827699999999999769e-01,3.042159999999999864e-01,1.766770000000000007e-01,-3.079700000000000215e-01,-3.079700000000000215e-01,2.787080000000000113e-01,5.337859999999999827e-01,4.317549999999999999e-01,1.001540000000000069e-01,2.532010000000000094e-01,3.552319999999999922e-01,2.532010000000000094e-01,-5.289200000000000151e-02,-2.059390000000000109e-01,1.511699999999999988e-01,4.572629999999999750e-01,-2.738499999999999962e-02,-6.140630000000000255e-01,3.042159999999999864e-01,4.062470000000000248e-01,-1.039080000000000004e-01,-6.395710000000000006e-01,-2.569540000000000157e-01,7.378479999999999484e-01,7.888629999999999809e-01,6.868319999999999981e-01,5.082780000000000076e-01,3.297240000000000171e-01,-1.294160000000000033e-01,-7.160940000000000083e-01,-2.569540000000000157e-01,2.276930000000000065e-01,1.001540000000000069e-01,1.511699999999999988e-01,5.592939999999999579e-01,6.358169999999999655e-01,3.552319999999999922e-01,1.256619999999999959e-01,-1.294160000000000033e-01,-2.824619999999999909e-01,-2.824619999999999909e-01,1.511699999999999988e-01,4.317549999999999999e-01,1.256619999999999959e-01,3.297240000000000171e-01,-2.059390000000000109e-01,1.001540000000000069e-01,4.827699999999999769e-01,3.807389999999999941e-01,1.766770000000000007e-01,4.913900000000000212e-02,2.532010000000000094e-01,-1.294160000000000033e-01,-1.294160000000000033e-01,-5.289200000000000151e-02,2.276930000000000065e-01,3.807389999999999941e-01,9.674169999999999714e-01,5.592939999999999579e-01,2.363099999999999923e-02,-5.120320000000000427e-01,-1.039080000000000004e-01,1.766770000000000007e-01,2.276930000000000065e-01,-4.865240000000000120e-01,-3.079700000000000215e-01,3.552319999999999922e-01,6.613240000000000229e-01,7.633550000000000058e-01,4.062470000000000248e-01,-6.650779999999999470e-01,-2.093512000000000040e+00,-8.691400000000000237e-01,1.043941000000000008e+00,1.579603000000000090e+00,1.273509999999999920e+00,1.043941000000000008e+00,2.021850000000000036e-01,4.317549999999999999e-01,2.021850000000000036e-01,-3.589849999999999985e-01,-4.865240000000000120e-01,-1.294160000000000033e-01,-5.375400000000000178e-01,-4.610159999999999814e-01,-3.589849999999999985e-01,4.317549999999999999e-01,6.358169999999999655e-01,7.633550000000000058e-01,5.082780000000000076e-01,3.297240000000000171e-01,-5.630469999999999642e-01,-6.140630000000000255e-01,1.256619999999999959e-01,2.021850000000000036e-01,3.042159999999999864e-01,6.613240000000000229e-01,1.069447999999999954e+00,8.908939999999999637e-01,-2.059390000000000109e-01,-4.355089999999999795e-01,-2.824619999999999909e-01,3.552319999999999922e-01,-7.839999999999999747e-02,-3.334779999999999966e-01,-1.039080000000000004e-01,2.363099999999999923e-02,5.592939999999999579e-01,4.827699999999999769e-01,3.807389999999999941e-01,3.552319999999999922e-01,5.848010000000000153e-01,1.256619999999999959e-01,-2.569540000000000157e-01,-2.569540000000000157e-01,-7.160940000000000083e-01,-1.549230000000000051e-01,4.317549999999999999e-01,5.082780000000000076e-01,7.464600000000000402e-02,5.592939999999999579e-01,9.674169999999999714e-01,8.653859999999999886e-01,3.552319999999999922e-01,-6.395710000000000006e-01,-1.583356999999999903e+00,-2.314470000000000138e-01,2.532010000000000094e-01,5.082780000000000076e-01,4.572629999999999750e-01,7.123399999999999732e-01,1.511699999999999988e-01,1.256619999999999959e-01,-1.876999999999999979e-03,-5.289200000000000151e-02,4.062470000000000248e-01,4.062470000000000248e-01,-1.039080000000000004e-01,-4.100010000000000043e-01,1.001540000000000069e-01,-7.839999999999999747e-02,-7.839999999999999747e-02,3.042159999999999864e-01,4.572629999999999750e-01,3.807389999999999941e-01,3.552319999999999922e-01,3.042159999999999864e-01,7.464600000000000402e-02,-2.738499999999999962e-02,2.021850000000000036e-01,1.511699999999999988e-01,-1.039080000000000004e-01,-1.039080000000000004e-01,2.532010000000000094e-01,1.766770000000000007e-01,-2.824619999999999909e-01,-2.738499999999999962e-02,3.297240000000000171e-01,4.572629999999999750e-01,6.868319999999999981e-01,3.297240000000000171e-01,6.103089999999999904e-01,1.766770000000000007e-01,-1.804310000000000080e-01,-1.039080000000000004e-01,1.256619999999999959e-01,-2.738499999999999962e-02,2.363099999999999923e-02,-4.610159999999999814e-01,1.511699999999999988e-01,5.337859999999999827e-01,4.317549999999999999e-01,5.337859999999999827e-01,1.511699999999999988e-01,-2.824619999999999909e-01,-4.355089999999999795e-01,4.317549999999999999e-01,4.572629999999999750e-01,2.532010000000000094e-01,4.572629999999999750e-01,3.297240000000000171e-01,1.256619999999999959e-01,-1.876999999999999979e-03,-1.804310000000000080e-01,-7.839999999999999747e-02,-4.355089999999999795e-01,1.001540000000000069e-01,6.358169999999999655e-01,3.552319999999999922e-01,5.337859999999999827e-01,4.062470000000000248e-01,-7.839999999999999747e-02,-3.589849999999999985e-01,-4.355089999999999795e-01,2.363099999999999923e-02,7.123399999999999732e-01,8.398790000000000422e-01,4.572629999999999750e-01,-5.375400000000000178e-01,-1.294160000000000033e-01,4.913900000000000212e-02,6.868319999999999981e-01,4.913900000000000212e-02,2.021850000000000036e-01,7.888629999999999809e-01,4.572629999999999750e-01,-9.456639999999999491e-01,-1.557849000000000039e+00,3.552319999999999922e-01,6.613240000000000229e-01,5.082780000000000076e-01,4.913900000000000212e-02,3.552319999999999922e-01,5.082780000000000076e-01,2.021850000000000036e-01,4.572629999999999750e-01,3.807389999999999941e-01,-2.059390000000000109e-01,-2.569540000000000157e-01,-1.804310000000000080e-01,1.766770000000000007e-01,2.532010000000000094e-01,4.317549999999999999e-01,1.511699999999999988e-01,-2.059390000000000109e-01,-5.120320000000000427e-01,-5.289200000000000151e-02,3.297240000000000171e-01,1.511699999999999988e-01,4.827699999999999769e-01,5.592939999999999579e-01,2.787080000000000113e-01,1.256619999999999959e-01,3.807389999999999941e-01,6.103089999999999904e-01,2.021850000000000036e-01,-1.149726000000000026e+00,-2.569540000000000157e-01,5.337859999999999827e-01,3.297240000000000171e-01,3.297240000000000171e-01,1.511699999999999988e-01,-1.549230000000000051e-01,-3.079700000000000215e-01,1.001540000000000069e-01,4.062470000000000248e-01,2.787080000000000113e-01,5.337859999999999827e-01,6.868319999999999981e-01,2.787080000000000113e-01,-1.294160000000000033e-01,2.787080000000000113e-01,-5.289200000000000151e-02,-5.885550000000000503e-01,1.511699999999999988e-01,1.256619999999999959e-01,2.532010000000000094e-01,3.297240000000000171e-01,6.868319999999999981e-01,4.062470000000000248e-01,7.464600000000000402e-02,-1.804310000000000080e-01,-2.569540000000000157e-01,-4.355089999999999795e-01,-2.824619999999999909e-01,1.511699999999999988e-01,6.613240000000000229e-01,9.929249999999999465e-01,6.868319999999999981e-01,-1.876999999999999979e-03,-1.039080000000000004e-01,4.062470000000000248e-01,1.511699999999999988e-01,-5.289200000000000151e-02,-2.314470000000000138e-01,-2.569540000000000157e-01,4.913900000000000212e-02,3.297240000000000171e-01,1.766770000000000007e-01,-1.876999999999999979e-03,1.001540000000000069e-01,2.787080000000000113e-01,3.042159999999999864e-01,-4.100010000000000043e-01,-7.671090000000000408e-01,5.337859999999999827e-01,9.419100000000000250e-01,6.358169999999999655e-01,3.552319999999999922e-01,5.337859999999999827e-01,2.363099999999999923e-02,-1.876999999999999979e-03,-5.289200000000000151e-02,-5.885550000000000503e-01,-1.039080000000000004e-01,3.552319999999999922e-01,6.613240000000000229e-01,2.787080000000000113e-01,4.913900000000000212e-02,-3.334779999999999966e-01,-4.355089999999999795e-01,-7.839999999999999747e-02,-1.549230000000000051e-01,7.633550000000000058e-01,6.613240000000000229e-01,7.378479999999999484e-01,4.572629999999999750e-01,-4.610159999999999814e-01,-6.395710000000000006e-01,4.572629999999999750e-01,3.042159999999999864e-01,4.317549999999999999e-01,3.042159999999999864e-01,2.787080000000000113e-01,-1.876999999999999979e-03,-1.294160000000000033e-01,-1.804310000000000080e-01,2.363099999999999923e-02,3.042159999999999864e-01,1.766770000000000007e-01,-4.100010000000000043e-01,1.766770000000000007e-01,2.787080000000000113e-01,4.572629999999999750e-01,3.297240000000000171e-01,2.532010000000000094e-01,3.042159999999999864e-01,-1.294160000000000033e-01,1.511699999999999988e-01,5.337859999999999827e-01,2.276930000000000065e-01,-3.589849999999999985e-01,-3.334779999999999966e-01,1.511699999999999988e-01,2.787080000000000113e-01,2.276930000000000065e-01,1.766770000000000007e-01,5.592939999999999579e-01,4.827699999999999769e-01,3.552319999999999922e-01,1.766770000000000007e-01,-5.289200000000000151e-02,7.464600000000000402e-02,-1.294160000000000033e-01,-1.876999999999999979e-03,2.363099999999999923e-02,2.276930000000000065e-01,-2.059390000000000109e-01,-4.610159999999999814e-01,2.787080000000000113e-01,5.337859999999999827e-01,6.613240000000000229e-01,4.062470000000000248e-01,4.572629999999999750e-01,-1.804310000000000080e-01,-1.149726000000000026e+00,-5.289200000000000151e-02,5.848010000000000153e-01,8.653859999999999886e-01,6.358169999999999655e-01,4.827699999999999769e-01,1.766770000000000007e-01,-5.885550000000000503e-01,-2.569540000000000157e-01,1.001540000000000069e-01,2.532010000000000094e-01,2.021850000000000036e-01,2.276930000000000065e-01,2.276930000000000065e-01,-1.876999999999999979e-03,1.256619999999999959e-01,1.001540000000000069e-01,-1.549230000000000051e-01,4.913900000000000212e-02,6.358169999999999655e-01,6.613240000000000229e-01,1.511699999999999988e-01,-3.334779999999999966e-01,-3.334779999999999966e-01,4.913900000000000212e-02,5.337859999999999827e-01,4.827699999999999769e-01,1.256619999999999959e-01,2.363099999999999923e-02,3.297240000000000171e-01,3.807389999999999941e-01,4.572629999999999750e-01,1.256619999999999959e-01,-2.569540000000000157e-01,-2.314470000000000138e-01,2.276930000000000065e-01,2.363099999999999923e-02,-4.100010000000000043e-01,1.256619999999999959e-01,1.511699999999999988e-01,1.256619999999999959e-01,5.592939999999999579e-01,8.143709999999999560e-01,4.317549999999999999e-01,1.511699999999999988e-01,2.021850000000000036e-01,-3.079700000000000215e-01,-4.100010000000000043e-01,2.532010000000000094e-01,7.633550000000000058e-01,2.532010000000000094e-01,-1.876999999999999979e-03,-2.738499999999999962e-02,2.787080000000000113e-01,-1.804310000000000080e-01,-5.289200000000000151e-02,2.021850000000000036e-01,2.021850000000000036e-01,1.001540000000000069e-01,2.532010000000000094e-01,1.766770000000000007e-01,4.317549999999999999e-01,3.042159999999999864e-01,7.464600000000000402e-02,-2.059390000000000109e-01,-9.456639999999999491e-01,-1.804310000000000080e-01,8.143709999999999560e-01,6.358169999999999655e-01,6.358169999999999655e-01,2.021850000000000036e-01,1.001540000000000069e-01,4.317549999999999999e-01,4.062470000000000248e-01,-3.079700000000000215e-01,-1.294160000000000033e-01,1.001540000000000069e-01,5.082780000000000076e-01,-3.334779999999999966e-01,-4.355089999999999795e-01,7.464600000000000402e-02,3.552319999999999922e-01,3.552319999999999922e-01,2.276930000000000065e-01,4.317549999999999999e-01,4.062470000000000248e-01,1.256619999999999959e-01,2.363099999999999923e-02,3.042159999999999864e-01,1.256619999999999959e-01,-7.839999999999999747e-02,2.363099999999999923e-02,-5.120320000000000427e-01,3.552319999999999922e-01,1.256619999999999959e-01,3.552319999999999922e-01,2.276930000000000065e-01,-1.876999999999999979e-03,3.552319999999999922e-01,6.103089999999999904e-01,3.297240000000000171e-01,-2.738499999999999962e-02,3.552319999999999922e-01,2.276930000000000065e-01,-4.610159999999999814e-01,-7.839999999999999747e-02,2.532010000000000094e-01,3.297240000000000171e-01,7.464600000000000402e-02,7.464600000000000402e-02,2.787080000000000113e-01,4.913900000000000212e-02,1.256619999999999959e-01,4.572629999999999750e-01,4.572629999999999750e-01,3.042159999999999864e-01,-3.844929999999999737e-01,-7.839999999999999747e-02,-2.314470000000000138e-01,-2.569540000000000157e-01,-1.549230000000000051e-01,5.337859999999999827e-01,6.868319999999999981e-01,5.848010000000000153e-01,4.827699999999999769e-01,4.827699999999999769e-01,-2.738499999999999962e-02,-1.549230000000000051e-01,-5.289200000000000151e-02,1.511699999999999988e-01,-3.589849999999999985e-01,-8.946479999999999988e-01,1.511699999999999988e-01,5.082780000000000076e-01,3.807389999999999941e-01,2.276930000000000065e-01,5.337859999999999827e-01,3.297240000000000171e-01,3.042159999999999864e-01,2.532010000000000094e-01,4.913900000000000212e-02,2.276930000000000065e-01,1.766770000000000007e-01,3.807389999999999941e-01,-5.289200000000000151e-02,-1.039080000000000004e-01,-2.738499999999999962e-02,-1.804310000000000080e-01,1.001540000000000069e-01,2.021850000000000036e-01,-1.294160000000000033e-01,-1.294160000000000033e-01,6.358169999999999655e-01,6.358169999999999655e-01,6.358169999999999655e-01,4.827699999999999769e-01,7.464600000000000402e-02,-3.844929999999999737e-01,-3.079700000000000215e-01,-5.289200000000000151e-02,-3.844929999999999737e-01,-2.824619999999999909e-01,5.337859999999999827e-01,9.164020000000000499e-01,4.062470000000000248e-01,5.082780000000000076e-01,3.297240000000000171e-01,-1.294160000000000033e-01,-7.839999999999999747e-02,4.913900000000000212e-02,-1.039080000000000004e-01,1.511699999999999988e-01,2.021850000000000036e-01,-5.289200000000000151e-02,-1.294160000000000033e-01,2.276930000000000065e-01,1.766770000000000007e-01,-1.549230000000000051e-01,-5.289200000000000151e-02,5.337859999999999827e-01,2.021850000000000036e-01,3.552319999999999922e-01,5.082780000000000076e-01,1.001540000000000069e-01,-1.039080000000000004e-01,-1.549230000000000051e-01,-2.738499999999999962e-02,-1.876999999999999979e-03,5.337859999999999827e-01,8.143709999999999560e-01,2.532010000000000094e-01,-5.885550000000000503e-01,-2.738499999999999962e-02,1.766770000000000007e-01,1.766770000000000007e-01,2.532010000000000094e-01,2.363099999999999923e-02,2.276930000000000065e-01,-2.824619999999999909e-01,-3.844929999999999737e-01,1.766770000000000007e-01,4.062470000000000248e-01,7.888629999999999809e-01,6.868319999999999981e-01,1.766770000000000007e-01,1.766770000000000007e-01,3.552319999999999922e-01,3.807389999999999941e-01,1.511699999999999988e-01,-5.375400000000000178e-01,-2.569540000000000157e-01,-5.289200000000000151e-02,-2.824619999999999909e-01,1.256619999999999959e-01,4.062470000000000248e-01,4.913900000000000212e-02,-1.804310000000000080e-01,2.276930000000000065e-01,5.592939999999999579e-01,5.848010000000000153e-01,2.276930000000000065e-01,1.001540000000000069e-01,2.787080000000000113e-01,3.297240000000000171e-01,1.511699999999999988e-01,-2.059390000000000109e-01,-2.824619999999999909e-01,1.511699999999999988e-01,5.592939999999999579e-01,5.592939999999999579e-01,1.766770000000000007e-01,-2.314470000000000138e-01,-3.844929999999999737e-01,2.787080000000000113e-01,4.062470000000000248e-01,7.464600000000000402e-02,1.001540000000000069e-01,1.256619999999999959e-01,7.123399999999999732e-01,8.143709999999999560e-01,-2.569540000000000157e-01,-1.022186999999999957e+00,-1.039080000000000004e-01,2.276930000000000065e-01,8.398790000000000422e-01,2.276930000000000065e-01,-7.839999999999999747e-02,-2.059390000000000109e-01,2.532010000000000094e-01,5.848010000000000153e-01,7.888629999999999809e-01,2.021850000000000036e-01,3.552319999999999922e-01,6.103089999999999904e-01,-7.926170000000000160e-01,-1.047695000000000043e+00,-9.456639999999999491e-01,-1.804310000000000080e-01,6.358169999999999655e-01,1.094956000000000040e+00,1.248002999999999973e+00,3.807389999999999941e-01,-1.039080000000000004e-01,3.552319999999999922e-01,-2.314470000000000138e-01,-4.355089999999999795e-01,-3.079700000000000215e-01,-2.738499999999999962e-02,5.082780000000000076e-01,6.358169999999999655e-01,5.592939999999999579e-01,2.787080000000000113e-01,4.062470000000000248e-01,-1.876999999999999979e-03,-2.059390000000000109e-01,-3.334779999999999966e-01,-4.355089999999999795e-01,2.021850000000000036e-01,3.042159999999999864e-01,1.256619999999999959e-01,2.787080000000000113e-01,4.572629999999999750e-01,3.042159999999999864e-01,4.317549999999999999e-01,-7.839999999999999747e-02,4.913900000000000212e-02,7.464600000000000402e-02,-2.738499999999999962e-02,3.552319999999999922e-01,2.787080000000000113e-01,-1.804310000000000080e-01,-5.289200000000000151e-02,1.766770000000000007e-01,4.913900000000000212e-02,5.592939999999999579e-01,5.848010000000000153e-01,1.001540000000000069e-01,1.766770000000000007e-01,-2.059390000000000109e-01,-2.314470000000000138e-01,-1.876999999999999979e-03,1.766770000000000007e-01,7.633550000000000058e-01,4.913900000000000212e-02,-4.610159999999999814e-01,-2.059390000000000109e-01,1.001540000000000069e-01,-1.549230000000000051e-01,4.827699999999999769e-01,9.164020000000000499e-01,7.378479999999999484e-01,7.633550000000000058e-01,2.276930000000000065e-01,-7.160940000000000083e-01,-7.160940000000000083e-01,-1.804310000000000080e-01,3.042159999999999864e-01,3.552319999999999922e-01,4.572629999999999750e-01,3.552319999999999922e-01,3.552319999999999922e-01,1.001540000000000069e-01,-2.314470000000000138e-01,-4.610159999999999814e-01,-5.375400000000000178e-01,-1.876999999999999979e-03,6.613240000000000229e-01,5.848010000000000153e-01,6.613240000000000229e-01,5.592939999999999579e-01,8.143709999999999560e-01,-1.804310000000000080e-01,-2.569540000000000157e-01,-2.059390000000000109e-01,-1.294160000000000033e-01,2.021850000000000036e-01,4.572629999999999750e-01,1.511699999999999988e-01,2.276930000000000065e-01,2.021850000000000036e-01,-3.589849999999999985e-01,-1.876999999999999979e-03,3.552319999999999922e-01,4.913900000000000212e-02,2.787080000000000113e-01,1.511699999999999988e-01,2.787080000000000113e-01,2.276930000000000065e-01,1.766770000000000007e-01,-1.876999999999999979e-03,-2.824619999999999909e-01,1.766770000000000007e-01,8.143709999999999560e-01,1.256619999999999959e-01,-3.589849999999999985e-01,-2.059390000000000109e-01,4.913900000000000212e-02,6.613240000000000229e-01,7.633550000000000058e-01,5.592939999999999579e-01,-4.100010000000000043e-01,-4.100010000000000043e-01,-2.059390000000000109e-01,4.062470000000000248e-01,6.613240000000000229e-01,3.552319999999999922e-01,3.297240000000000171e-01,2.276930000000000065e-01,4.913900000000000212e-02,-3.079700000000000215e-01,-1.039080000000000004e-01,1.001540000000000069e-01,1.511699999999999988e-01,-6.140630000000000255e-01,-3.589849999999999985e-01
