2.021850000000000036e-01,1.256619999999999959e-01,4.913900000000000212e-02,2.276930000000000065e-01,2.276930000000000065e-01,1.511699999999999988e-01,-5.289200000000000151e-02,4.913900000000000212e-02,1.256619999999999959e-01,1.511699999999999988e-01,2.787080000000000113e-01,1.766770000000000007e-01,1.766770000000000007e-01,1.256619999999999959e-01,4.913900000000000212e-02,1.256619999999999959e-01,1.256619999999999959e-01,1.511699999999999988e-01,1.511699999999999988e-01,1.766770000000000007e-01,1.511699999999999988e-01,1.001540000000000069e-01,1.256619999999999959e-01,1.766770000000000007e-01,4.913900000000000212e-02,1.511699999999999988e-01,1.001540000000000069e-01,1.001540000000000069e-01,1.766770000000000007e-01,1.766770000000000007e-01,2.021850000000000036e-01,4.913900000000000212e-02,7.464600000000000402e-02,1.511699999999999988e-01,2.532010000000000094e-01,2.276930000000000065e-01,1.001540000000000069e-01,4.913900000000000212e-02,2.363099999999999923e-02,1.256619999999999959e-01,1.766770000000000007e-01,3.042159999999999864e-01,3.042159999999999864e-01,2.021850000000000036e-01,1.511699999999999988e-01,1.256619999999999959e-01,4.913900000000000212e-02,2.021850000000000036e-01,1.001540000000000069e-01,1.001540000000000069e-01,7.464600000000000402e-02,7.464600000000000402e-02,2.276930000000000065e-01,2.276930000000000065e-01,1.256619999999999959e-01,2.532010000000000094e-01,1.511699999999999988e-01,7.464600000000000402e-02,-5.289200000000000151e-02,7.464600000000000402e-02,3.042159999999999864e-01,2.276930000000000065e-01,2.276930000000000065e-01,1.511699999999999988e-01,1.511699999999999988e-01,1.256619999999999959e-01,1.001540000000000069e-01,-5.289200000000000151e-02,2.021850000000000036e-01,1.511699999999999988e-01,7.464600000000000402e-02,1.766770000000000007e-01,1.511699999999999988e-01,2.532010000000000094e-01,1.256619999999999959e-01,2.276930000000000065e-01,1.511699999999999988e-01,1.001540000000000069e-01,2.276930000000000065e-01,1.766770000000000007e-01,1.511699999999999988e-01,4.913900000000000212e-02,4.913900000000000212e-02,2.021850000000000036e-01,2.021850000000000036e-01,1.001540000000000069e-01,1.256619999999999959e-01,1.766770000000000007e-01,1.256619999999999959e-01,2.363099999999999923e-02,2.276930000000000065e-01,1.511699999999999988e-01,2.021850000000000036e-01,3.297240000000000171e-01,1.001540000000000069e-01,1.001540000000000069e-01,1.511699999999999988e-01,1.001540000000000069e-01,1.001540000000000069e-01,1.256619999999999959e-01,1.766770000000000007e-01,1.766770000000000007e-01,3.297240000000000171e-01,2.532010000000000094e-01,1.511699999999999988e-01,1.001540000000000069e-01,1.256619999999999959e-01,4.913900000000000212e-02,4.913900000000000212e-02,2.021850000000000036e-01,1.511699999999999988e-01,2.276930000000000065e-01,4.062470000000000248e-01,4.913900000000000212e-02,-1.039080000000000004e-01,2.787080000000000113e-01,1.766770000000000007e-01,1.766770000000000007e-01,2.787080000000000113e-01,1.766770000000000007e-01,-2.738499999999999962e-02,1.766770000000000007e-01,2.276930000000000065e-01,1.511699999999999988e-01,4.913900000000000212e-02,2.021850000000000036e-01,1.511699999999999988e-01,1.001540000000000069e-01,7.464600000000000402e-02,1.001540000000000069e-01,2.787080000000000113e-01,1.256619999999999959e-01,4.913900000000000212e-02,3.042159999999999864e-01,2.021850000000000036e-01,4.913900000000000212e-02,1.511699999999999988e-01,1.256619999999999959e-01,1.001540000000000069e-01,4.913900000000000212e-02,1.511699999999999988e-01,2.532010000000000094e-01,1.766770000000000007e-01,1.511699999999999988e-01,2.787080000000000113e-01,1.256619999999999959e-01,1.001540000000000069e-01,4.913900000000000212e-02,2.021850000000000036e-01,1.511699999999999988e-01,1.766770000000000007e-01,-2.738499999999999962e-02,1.256619999999999959e-01,2.787080000000000113e-01,1.511699999999999988e-01,1.766770000000000007e-01,7.464600000000000402e-02,2.021850000000000036e-01,-2.738499999999999962e-02,7.464600000000000402e-02,1.001540000000000069e-01,2.787080000000000113e-01,2.021850000000000036e-01,1.256619999999999959e-01,4.913900000000000212e-02,4.913900000000000212e-02,1.511699999999999988e-01,1.766770000000000007e-01,2.021850000000000036e-01,7.464600000000000402e-02,2.276930000000000065e-01,1.766770000000000007e-01,1.256619999999999959e-01,7.464600000000000402e-02,1.001540000000000069e-01,1.511699999999999988e-01,1.001540000000000069e-01,1.511699999999999988e-01,2.363099999999999923e-02,-1.876999999999999979e-03,1.766770000000000007e-01,2.532010000000000094e-01,2.021850000000000036e-01,1.511699999999999988e-01,2.021850000000000036e-01,1.511699999999999988e-01,4.913900000000000212e-02,-1.876999999999999979e-03,1.766770000000000007e-01,1.256619999999999959e-01,2.532010000000000094e-01,2.787080000000000113e-01,1.766770000000000007e-01,1.256619999999999959e-01,2.021850000000000036e-01,1.511699999999999988e-01,4.913900000000000212e-02,-1.549230000000000051e-01,1.256619999999999959e-01,2.532010000000000094e-01,2.532010000000000094e-01,1.001540000000000069e-01,-1.876999999999999979e-03,2.276930000000000065e-01,2.532010000000000094e-01,1.001540000000000069e-01,1.001540000000000069e-01,1.766770000000000007e-01,1.766770000000000007e-01,7.464600000000000402e-02,1.766770000000000007e-01,1.256619999999999959e-01,2.021850000000000036e-01,2.276930000000000065e-01,7.464600000000000402e-02,2.363099999999999923e-02,1.511699999999999988e-01,2.021850000000000036e-01,1.256619999999999959e-01,7.464600000000000402e-02,1.511699999999999988e-01,7.464600000000000402e-02,2.276930000000000065e-01,1.766770000000000007e-01,2.363099999999999923e-02,4.913900000000000212e-02,2.532010000000000094e-01,1.511699999999999988e-01,1.001540000000000069e-01,1.001540000000000069e-01,3.042159999999999864e-01,2.276930000000000065e-01,1.766770000000000007e-01,1.766770000000000007e-01,2.532010000000000094e-01,-1.876999999999999979e-03,2.363099999999999923e-02,2.276930000000000065e-01,1.511699999999999988e-01,1.001540000000000069e-01,1.511699999999999988e-01,7.464600000000000402e-02,1.256619999999999959e-01,1.766770000000000007e-01,1.511699999999999988e-01,2.021850000000000036e-01,4.913900000000000212e-02,1.001540000000000069e-01,4.913900000000000212e-02,1.511699999999999988e-01,2.021850000000000036e-01,2.532010000000000094e-01,3.552319999999999922e-01,2.021850000000000036e-01,1.256619999999999959e-01,1.001540000000000069e-01,1.256619999999999959e-01,7.464600000000000402e-02,1.001540000000000069e-01,7.464600000000000402e-02,1.766770000000000007e-01,3.297240000000000171e-01,2.532010000000000094e-01,2.363099999999999923e-02,2.363099999999999923e-02,1.001540000000000069e-01,2.021850000000000036e-01,1.256619999999999959e-01,2.363099999999999923e-02,4.913900000000000212e-02,1.511699999999999988e-01,2.532010000000000094e-01,3.297240000000000171e-01,3.042159999999999864e-01,7.464600000000000402e-02,-1.876999999999999979e-03,-2.738499999999999962e-02,4.913900000000000212e-02,1.001540000000000069e-01,1.766770000000000007e-01,2.532010000000000094e-01,2.276930000000000065e-01,1.256619999999999959e-01,1.256619999999999959e-01,1.001540000000000069e-01,7.464600000000000402e-02,2.021850000000000036e-01,1.001540000000000069e-01,-1.549230000000000051e-01,1.511699999999999988e-01,2.532010000000000094e-01,4.062470000000000248e-01,2.276930000000000065e-01,1.511699999999999988e-01,-1.876999999999999979e-03,1.001540000000000069e-01,1.001540000000000069e-01,2.021850000000000036e-01,1.256619999999999959e-01,1.001540000000000069e-01,1.256619999999999959e-01,1.511699999999999988e-01,1.001540000000000069e-01,2.532010000000000094e-01,1.256619999999999959e-01,1.511699999999999988e-01,2.276930000000000065e-01,2.276930000000000065e-01,1.511699999999999988e-01,2.363099999999999923e-02,1.511699999999999988e-01,2.276930000000000065e-01,3.042159999999999864e-01,2.021850000000000036e-01,7.464600000000000402e-02,4.913900000000000212e-02,7.464600000000000402e-02,1.511699999999999988e-01,4.913900000000000212e-02,1.256619999999999959e-01,1.256619999999999959e-01,1.511699999999999988e-01,1.766770000000000007e-01,2.532010000000000094e-01,1.511699999999999988e-01,1.511699999999999988e-01,1.766770000000000007e-01,1.256619999999999959e-01,2.021850000000000036e-01,2.363099999999999923e-02,1.766770000000000007e-01,1.001540000000000069e-01,1.511699999999999988e-01,2.787080000000000113e-01,2.276930000000000065e-01,-1.876999999999999979e-03,4.913900000000000212e-02,1.256619999999999959e-01,1.256619999999999959e-01,2.276930000000000065e-01,2.021850000000000036e-01,1.511699999999999988e-01,1.766770000000000007e-01,1.511699999999999988e-01,1.256619999999999959e-01,1.256619999999999959e-01,1.511699999999999988e-01,1.001540000000000069e-01,1.511699999999999988e-01,2.363099999999999923e-02,2.276930000000000065e-01,2.363099999999999923e-02,7.464600000000000402e-02,2.787080000000000113e-01,1.766770000000000007e-01,4.913900000000000212e-02,2.021850000000000036e-01,7.464600000000000402e-02,7.464600000000000402e-02,1.766770000000000007e-01,2.276930000000000065e-01,7.464600000000000402e-02,1.256619999999999959e-01,1.256619999999999959e-01,2.276930000000000065e-01,1.511699999999999988e-01,-1.876999999999999979e-03,1.001540000000000069e-01,1.511699999999999988e-01,1.766770000000000007e-01,1.256619999999999959e-01,2.276930000000000065e-01,1.256619999999999959e-01,1.766770000000000007e-01,1.766770000000000007e-01,1.766770000000000007e-01,1.766770000000000007e-01,4.913900000000000212e-02,-7.839999999999999747e-02,-2.738499999999999962e-02,1.256619999999999959e-01,2.532010000000000094e-01,4.317549999999999999e-01,2.276930000000000065e-01,1.001540000000000069e-01,7.464600000000000402e-02,2.021850000000000036e-01,7.464600000000000402e-02,-1.549230000000000051e-01,7.464600000000000402e-02,2.787080000000000113e-01,2.021850000000000036e-01,2.276930000000000065e-01,2.021850000000000036e-01,1.766770000000000007e-01,2.276930000000000065e-01,4.913900000000000212e-02,1.001540000000000069e-01,1.766770000000000007e-01,1.001540000000000069e-01,1.001540000000000069e-01,1.766770000000000007e-01,2.021850000000000036e-01,1.001540000000000069e-01,7.464600000000000402e-02,1.766770000000000007e-01,1.511699999999999988e-01,4.913900000000000212e-02,7.464600000000000402e-02,1.001540000000000069e-01,1.766770000000000007e-01,3.042159999999999864e-01,2.532010000000000094e-01,1.256619999999999959e-01,2.276930000000000065e-01,3.042159999999999864e-01,-1.876999999999999979e-03,-1.804310000000000080e-01,-1.876999999999999979e-03,1.511699999999999988e-01,3.042159999999999864e-01,2.021850000000000036e-01,1.511699999999999988e-01,2.276930000000000065e-01,7.464600000000000402e-02,2.021850000000000036e-01,2.276930000000000065e-01,7.464600000000000402e-02,2.021850000000000036e-01,4.913900000000000212e-02,1.766770000000000007e-01,1.766770000000000007e-01,1.766770000000000007e-01,1.256619999999999959e-01,1.511699999999999988e-01,1.001540000000000069e-01,7.464600000000000402e-02,2.021850000000000036e-01,1.766770000000000007e-01,1.001540000000000069e-01,4.913900000000000212e-02,-1.876999999999999979e-03,1.256619999999999959e-01,2.021850000000000036e-01,2.021850000000000036e-01,2.532010000000000094e-01,2.276930000000000065e-01,1.001540000000000069e-01,-2.738499999999999962e-02,1.766770000000000007e-01,2.532010000000000094e-01,1.766770000000000007e-01,1.766770000000000007e-01,1.511699999999999988e-01,1.766770000000000007e-01,4.913900000000000212e-02,-1.876999999999999979e-03,7.464600000000000402e-02,2.276930000000000065e-01,2.021850000000000036e-01,1.766770000000000007e-01,4.913900000000000212e-02,4.913900000000000212e-02,2.276930000000000065e-01,1.511699999999999988e-01,1.001540000000000069e-01,4.913900000000000212e-02,1.766770000000000007e-01,1.256619999999999959e-01,2.532010000000000094e-01,1.001540000000000069e-01,1.766770000000000007e-01,3.297240000000000171e-01,3.297240000000000171e-01,1.256619999999999959e-01,-2.738499999999999962e-02,2.363099999999999923e-02,7.464600000000000402e-02,1.256619999999999959e-01,1.256619999999999959e-01,1.001540000000000069e-01,2.276930000000000065e-01,3.042159999999999864e-01,1.766770000000000007e-01,2.363099999999999923e-02,1.256619999999999959e-01,2.276930000000000065e-01,3.552319999999999922e-01,-5.289200000000000151e-02,2.363099999999999923e-02,2.021850000000000036e-01,2.021850000000000036e-01,1.511699999999999988e-01,1.001540000000000069e-01,1.511699999999999988e-01,2.532010000000000094e-01,0.000000000000000000e+00,0.000000000000000000e+00,0.000000000000000000e+00,0.000000000000000000e+00,1.511699999999999988e-01,2.363099999999999923e-02,2.363099999999999923e-02,1.511699999999999988e-01,2.276930000000000065e-01,2.276930000000000065e-01,1.256619999999999959e-01,2.276930000000000065e-01,4.913900000000000212e-02,1.256619999999999959e-01,1.766770000000000007e-01,1.511699999999999988e-01,1.766770000000000007e-01,2.021850000000000036e-01,7.464600000000000402e-02,2.021850000000000036e-01,4.062470000000000248e-01,2.276930000000000065e-01,1.256619999999999959e-01,1.511699999999999988e-01,-1.876999999999999979e-03,-2.738499999999999962e-02,1.511699999999999988e-01,-1.876999999999999979e-03,1.256619999999999959e-01,1.256619999999999959e-01,1.511699999999999988e-01,3.297240000000000171e-01,3.042159999999999864e-01,1.001540000000000069e-01,7.464600000000000402e-02,1.766770000000000007e-01,-5.289200000000000151e-02,1.001540000000000069e-01,2.532010000000000094e-01,2.021850000000000036e-01,3.042159999999999864e-01,3.807389999999999941e-01,-7.839999999999999747e-02,1.256619999999999959e-01,2.276930000000000065e-01,-7.839999999999999747e-02,7.464600000000000402e-02,1.766770000000000007e-01,1.766770000000000007e-01,1.511699999999999988e-01,1.511699999999999988e-01,2.021850000000000036e-01,4.913900000000000212e-02,1.766770000000000007e-01,2.363099999999999923e-02,1.001540000000000069e-01,1.511699999999999988e-01,2.363099999999999923e-02,1.766770000000000007e-01,1.766770000000000007e-01,1.511699999999999988e-01,1.511699999999999988e-01,1.766770000000000007e-01,4.913900000000000212e-02,1.001540000000000069e-01,2.021850000000000036e-01,2.276930000000000065e-01,1.511699999999999988e-01,1.256619999999999959e-01,1.511699999999999988e-01,-1.876999999999999979e-03,1.511699999999999988e-01,1.511699999999999988e-01,-2.738499999999999962e-02,2.276930000000000065e-01,2.363099999999999923e-02,3.042159999999999864e-01,2.021850000000000036e-01,1.511699999999999988e-01,1.766770000000000007e-01,1.256619999999999959e-01,-1.876999999999999979e-03,1.511699999999999988e-01,7.464600000000000402e-02,1.766770000000000007e-01,4.913900000000000212e-02,1.256619999999999959e-01,3.042159999999999864e-01,2.021850000000000036e-01,1.256619999999999959e-01,1.001540000000000069e-01,2.021850000000000036e-01,1.511699999999999988e-01,2.021850000000000036e-01,2.363099999999999923e-02,2.363099999999999923e-02,1.511699999999999988e-01,1.256619999999999959e-01,2.787080000000000113e-01,7.464600000000000402e-02,1.001540000000000069e-01,1.511699999999999988e-01,1.766770000000000007e-01,2.276930000000000065e-01,-1.876999999999999979e-03,1.256619999999999959e-01,2.532010000000000094e-01,7.464600000000000402e-02,1.766770000000000007e-01,2.276930000000000065e-01,2.021850000000000036e-01,2.276930000000000065e-01,1.256619999999999959e-01,1.256619999999999959e-01,1.256619999999999959e-01,4.913900000000000212e-02,7.464600000000000402e-02,1.511699999999999988e-01,1.511699999999999988e-01,1.511699999999999988e-01,1.256619999999999959e-01,2.276930000000000065e-01,1.511699999999999988e-01,1.256619999999999959e-01,4.913900000000000212e-02,1.256619999999999959e-01,1.766770000000000007e-01,2.021850000000000036e-01,1.511699999999999988e-01,-5.289200000000000151e-02,2.532010000000000094e-01,2.021850000000000036e-01,2.363099999999999923e-02,2.532010000000000094e-01,1.511699999999999988e-01,1.001540000000000069e-01,4.913900000000000212e-02,2.363099999999999923e-02,3.042159999999999864e-01,2.021850000000000036e-01,2.276930000000000065e-01,2.021850000000000036e-01,1.001540000000000069e-01,1.256619999999999959e-01,1.001540000000000069e-01,1.511699999999999988e-01,1.511699999999999988e-01,2.021850000000000036e-01,1.256619999999999959e-01,1.001540000000000069e-01,2.021850000000000036e-01,1.766770000000000007e-01,4.913900000000000212e-02,1.511699999999999988e-01,2.021850000000000036e-01,1.256619999999999959e-01,1.766770000000000007e-01,7.464600000000000402e-02,7.464600000000000402e-02,1.766770000000000007e-01,4.913900000000000212e-02,7.464600000000000402e-02,1.001540000000000069e-01,1.766770000000000007e-01,-1.876999999999999979e-03,2.276930000000000065e-01,3.552319999999999922e-01,1.511699999999999988e-01,1.256619999999999959e-01,2.276930000000000065e-01,2.276930000000000065e-01,1.511699999999999988e-01,2.276930000000000065e-01,1.001540000000000069e-01,4.913900000000000212e-02,1.511699999999999988e-01,1.256619999999999959e-01,2.363099999999999923e-02,7.464600000000000402e-02,2.021850000000000036e-01,2.363099999999999923e-02,2.021850000000000036e-01,2.276930000000000065e-01,7.464600000000000402e-02,1.766770000000000007e-01,1.511699999999999988e-01,2.363099999999999923e-02,1.511699999999999988e-01,2.021850000000000036e-01,1.511699999999999988e-01,1.766770000000000007e-01,1.766770000000000007e-01,2.021850000000000036e-01,2.532010000000000094e-01,1.256619999999999959e-01,1.511699999999999988e-01,1.001540000000000069e-01,4.913900000000000212e-02,1.511699999999999988e-01,1.511699999999999988e-01,1.766770000000000007e-01,3.297240000000000171e-01,1.766770000000000007e-01,7.464600000000000402e-02,1.256619999999999959e-01,-5.289200000000000151e-02,2.363099999999999923e-02,1.766770000000000007e-01,4.913900000000000212e-02,1.511699999999999988e-01,3.042159999999999864e-01,2.021850000000000036e-01,2.276930000000000065e-01,1.511699999999999988e-01,4.913900000000000212e-02,2.021850000000000036e-01,4.913900000000000212e-02,1.766770000000000007e-01,2.276930000000000065e-01,1.001540000000000069e-01,1.256619999999999959e-01,1.256619999999999959e-01,2.787080000000000113e-01,1.256619999999999959e-01,1.256619999999999959e-01,1.256619999999999959e-01,-1.876999999999999979e-03,1.511699999999999988e-01,2.021850000000000036e-01,1.766770000000000007e-01,1.511699999999999988e-01,2.276930000000000065e-01,1.256619999999999959e-01,1.001540000000000069e-01,1.256619999999999959e-01,-2.738499999999999962e-02,1.766770000000000007e-01,2.787080000000000113e-01,1.001540000000000069e-01,1.766770000000000007e-01,4.913900000000000212e-02,2.787080000000000113e-01,2.276930000000000065e-01,1.256619999999999959e-01,1.001540000000000069e-01,4.913900000000000212e-02,1.256619999999999959e-01,1.511699999999999988e-01,2.276930000000000065e-01,1.766770000000000007e-01,1.766770000000000007e-01,1.001540000000000069e-01,1.001540000000000069e-01,1.256619999999999959e-01,1.001540000000000069e-01,4.913900000000000212e-02,3.042159999999999864e-01,2.021850000000000036e-01,2.021850000000000036e-01,1.766770000000000007e-01,1.766770000000000007e-01,1.511699999999999988e-01,7.464600000000000402e-02,1.511699999999999988e-01,7.464600000000000402e-02,2.021850000000000036e-01,7.464600000000000402e-02,4.913900000000000212e-02,4.913900000000000212e-02,1.001540000000000069e-01,2.787080000000000113e-01,2.276930000000000065e-01,1.766770000000000007e-01,3.042159999999999864e-01,1.511699999999999988e-01,1.511699999999999988e-01,1.256619999999999959e-01,-1.039080000000000004e-01,1.001540000000000069e-01,1.766770000000000007e-01,1.511699999999999988e-01,1.511699999999999988e-01,1.766770000000000007e-01,1.511699999999999988e-01,1.001540000000000069e-01,1.511699999999999988e-01,4.913900000000000212e-02,7.464600000000000402e-02,2.787080000000000113e-01,2.021850000000000036e-01,1.766770000000000007e-01,2.787080000000000113e-01,2.021850000000000036e-01,2.363099999999999923e-02,-2.738499999999999962e-02,4.913900000000000212e-02,1.511699999999999988e-01,7.464600000000000402e-02,1.511699999999999988e-01,2.021850000000000036e-01,1.766770000000000007e-01,3.042159999999999864e-01,1.511699999999999988e-01,1.256619999999999959e-01,4.913900000000000212e-02,4.913900000000000212e-02,1.511699999999999988e-01,2.532010000000000094e-01,1.766770000000000007e-01,1.256619999999999959e-01,2.021850000000000036e-01,1.766770000000000007e-01,4.913900000000000212e-02,7.464600000000000402e-02,1.511699999999999988e-01,-2.738499999999999962e-02,1.256619999999999959e-01,1.256619999999999959e-01,1.766770000000000007e-01,1.256619999999999959e-01,1.766770000000000007e-01,2.787080000000000113e-01,2.276930000000000065e-01,1.256619999999999959e-01,1.001540000000000069e-01,2.021850000000000036e-01,1.766770000000000007e-01,1.766770000000000007e-01,-1.876999999999999979e-03,1.766770000000000007e-01,2.532010000000000094e-01,7.464600000000000402e-02,-5.289200000000000151e-02,2.021850000000000036e-01,1.766770000000000007e-01,1.511699999999999988e-01,4.913900000000000212e-02,1.256619999999999959e-01,1.766770000000000007e-01,1.766770000000000007e-01,2.532010000000000094e-01,2.532010000000000094e-01,1.001540000000000069e-01,1.256619999999999959e-01,-2.738499999999999962e-02,1.511699999999999988e-01,1.511699999999999988e-01,1.511699999999999988e-01,-1.876999999999999979e-03,1.766770000000000007e-01,2.787080000000000113e-01,1.511699999999999988e-01,1.001540000000000069e-01,1.766770000000000007e-01,2.021850000000000036e-01,2.363099999999999923e-02,-2.738499999999999962e-02,7.464600000000000402e-02,1.511699999999999988e-01,2.276930000000000065e-01,1.256619999999999959e-01,1.256619999999999959e-01,1.511699999999999988e-01,2.532010000000000094e-01,1.001540000000000069e-01,1.001540000000000069e-01,2.363099999999999923e-02,1.256619999999999959e-01,2.276930000000000065e-01,2.532010000000000094e-01,4.913900000000000212e-02,1.511699999999999988e-01,1.256619999999999959e-01,1.766770000000000007e-01,1.511699999999999988e-01,1.001540000000000069e-01,1.256619999999999959e-01,1.001540000000000069e-01,1.511699999999999988e-01,7.464600000000000402e-02,1.256619999999999959e-01,2.021850000000000036e-01,7.464600000000000402e-02,1.766770000000000007e-01,1.511699999999999988e-01,1.766770000000000007e-01,2.532010000000000094e-01,2.276930000000000065e-01,1.511699999999999988e-01,3.552319999999999922e-01,2.276930000000000065e-01,4.913900000000000212e-02,7.464600000000000402e-02,1.001540000000000069e-01,2.021850000000000036e-01,1.001540000000000069e-01,7.464600000000000402e-02,1.511699999999999988e-01,2.021850000000000036e-01,1.511699999999999988e-01,2.787080000000000113e-01,2.532010000000000094e-01,1.256619999999999959e-01,1.511699999999999988e-01,1.256619999999999959e-01,4.913900000000000212e-02,1.256619999999999959e-01,2.021850000000000036e-01,2.021850000000000036e-01,1.001540000000000069e-01,1.511699999999999988e-01,1.766770000000000007e-01,2.787080000000000113e-01,2.021850000000000036e-01,1.001540000000000069e-01,-5.289200000000000151e-02,7.464600000000000402e-02,7.464600000000000402e-02,2.787080000000000113e-01,2.532010000000000094e-01,2.276930000000000065e-01,7.464600000000000402e-02,1.001540000000000069e-01,1.256619999999999959e-01,2.363099999999999923e-02,1.511699999999999988e-01,1.766770000000000007e-01,2.363099999999999923e-02,7.464600000000000402e-02,3.297240000000000171e-01,2.276930000000000065e-01,1.256619999999999959e-01,2.787080000000000113e-01,1.766770000000000007e-01,-1.876999999999999979e-03,2.021850000000000036e-01,2.021850000000000036e-01,-7.839999999999999747e-02,1.256619999999999959e-01,2.532010000000000094e-01,2.021850000000000036e-01,1.001540000000000069e-01,1.766770000000000007e-01,1.766770000000000007e-01,1.001540000000000069e-01,-2.738499999999999962e-02,1.511699999999999988e-01,2.021850000000000036e-01,1.511699999999999988e-01,1.766770000000000007e-01,1.256619999999999959e-01,2.787080000000000113e-01,2.021850000000000036e-01,2.276930000000000065e-01,2.532010000000000094e-01,-1.876999999999999979e-03,-1.876999999999999979e-03,1.511699999999999988e-01,1.511699999999999988e-01,1.256619999999999959e-01,1.256619999999999959e-01,1.256619999999999959e-01,1.256619999999999959e-01,2.532010000000000094e-01,7.464600000000000402e-02,7.464600000000000402e-02,1.256619999999999959e-01,2.532010000000000094e-01,2.787080000000000113e-01,1.001540000000000069e-01,1.511699999999999988e-01,1.001540000000000069e-01,1.511699999999999988e-01,1.511699999999999988e-01,2.021850000000000036e-01,1.001540000000000069e-01,2.363099999999999923e-02,4.913900000000000212e-02,1.511699999999999988e-01,1.256619999999999959e-01,1.511699999999999988e-01,1.511699999999999988e-01,2.021850000000000036e-01,2.532010000000000094e-01,1.001540000000000069e-01,2.276930000000000065e-01,1.001540000000000069e-01,1.766770000000000007e-01,2.532010000000000094e-01,7.464600000000000402e-02,-1.039080000000000004e-01,2.532010000000000094e-01,2.021850000000000036e-01,1.001540000000000069e-01,2.021850000000000036e-01,1.511699999999999988e-01,7.464600000000000402e-02,2.276930000000000065e-01,3.807389999999999941e-01,1.001540000000000069e-01,7.464600000000000402e-02,2.021850000000000036e-01,1.256619999999999959e-01,-1.876999999999999979e-03,-2.738499999999999962e-02,1.511699999999999988e-01,1.766770000000000007e-01,1.766770000000000007e-01,1.766770000000000007e-01,2.021850000000000036e-01,1.256619999999999959e-01,1.256619999999999959e-01,-2.738499999999999962e-02,1.511699999999999988e-01,2.276930000000000065e-01,1.256619999999999959e-01,7.464600000000000402e-02,7.464600000000000402e-02,3.042159999999999864e-01,1.256619999999999959e-01,4.913900000000000212e-02,1.511699999999999988e-01,1.511699999999999988e-01,2.276930000000000065e-01,1.256619999999999959e-01,4.913900000000000212e-02,1.511699999999999988e-01,2.276930000000000065e-01,1.766770000000000007e-01,1.001540000000000069e-01,1.511699999999999988e-01,1.001540000000000069e-01,1.511699999999999988e-01,1.511699999999999988e-01,-2.738499999999999962e-02,4.913900000000000212e-02,3.042159999999999864e-01,2.021850000000000036e-01,2.021850000000000036e-01,2.021850000000000036e-01,1.256619999999999959e-01,3.042159999999999864e-01,2.532010000000000094e-01,1.001540000000000069e-01,-2.738499999999999962e-02,7.464600000000000402e-02,1.001540000000000069e-01,1.256619999999999959e-01,4.913900000000000212e-02,2.276930000000000065e-01,2.532010000000000094e-01,1.511699999999999988e-01,1.001540000000000069e-01,1.766770000000000007e-01,1.511699999999999988e-01,-1.876999999999999979e-03,7.464600000000000402e-02,1.256619999999999959e-01,3.297240000000000171e-01,2.021850000000000036e-01,4.913900000000000212e-02,2.363099999999999923e-02,1.001540000000000069e-01,4.913900000000000212e-02,1.256619999999999959e-01,1.256619999999999959e-01,2.021850000000000036e-01,2.532010000000000094e-01,1.511699999999999988e-01,1.001540000000000069e-01,1.256619999999999959e-01,2.787080000000000113e-01,2.363099999999999923e-02,2.021850000000000036e-01,1.256619999999999959e-01,7.464600000000000402e-02,7.464600000000000402e-02,2.363099999999999923e-02,1.511699999999999988e-01,2.787080000000000113e-01,2.532010000000000094e-01,1.001540000000000069e-01,1.256619999999999959e-01,4.913900000000000212e-02,2.276930000000000065e-01,1.256619999999999959e-01,1.511699999999999988e-01,1.001540000000000069e-01,1.511699999999999988e-01,1.766770000000000007e-01,2.532010000000000094e-01,1.766770000000000007e-01,7.464600000000000402e-02,1.511699999999999988e-01,2.021850000000000036e-01,1.256619999999999959e-01,-1.876999999999999979e-03,7.464600000000000402e-02,3.297240000000000171e-01,2.021850000000000036e-01,1.256619999999999959e-01,1.511699999999999988e-01,4.913900000000000212e-02,1.511699999999999988e-01,1.511699999999999988e-01,1.511699999999999988e-01,1.766770000000000007e-01,2.363099999999999923e-02,-5.289200000000000151e-02,2.021850000000000036e-01,3.807389999999999941e-01,3.042159999999999864e-01,1.001540000000000069e-01,4.913900000000000212e-02,2.363099999999999923e-02,1.001540000000000069e-01,1.001540000000000069e-01,1.511699999999999988e-01,2.532010000000000094e-01,1.511699999999999988e-01,1.256619999999999959e-01,4.913900000000000212e-02,1.511699999999999988e-01,2.787080000000000113e-01,2.021850000000000036e-01,1.001540000000000069e-01,2.363099999999999923e-02,1.511699999999999988e-01,1.511699999999999988e-01,1.511699999999999988e-01,1.256619999999999959e-01,2.787080000000000113e-01,1.766770000000000007e-01,7.464600000000000402e-02,1.511699999999999988e-01,4.913900000000000212e-02,1.256619999999999959e-01,1.001540000000000069e-01,2.532010000000000094e-01,2.787080000000000113e-01,1.766770000000000007e-01,7.464600000000000402e-02,1.256619999999999959e-01,1.766770000000000007e-01,7.464600000000000402e-02,1.001540000000000069e-01,4.913900000000000212e-02,1.511699999999999988e-01,1.511699999999999988e-01,1.766770000000000007e-01,1.511699999999999988e-01,1.766770000000000007e-01,2.021850000000000036e-01,2.021850000000000036e-01,1.511699999999999988e-01,4.913900000000000212e-02,1.766770000000000007e-01,-5.289200000000000151e-02,1.001540000000000069e-01,2.021850000000000036e-01,2.787080000000000113e-01,2.276930000000000065e-01,1.511699999999999988e-01,7.464600000000000402e-02,1.511699999999999988e-01,1.256619999999999959e-01,1.001540000000000069e-01,1.511699999999999988e-01,2.363099999999999923e-02,2.021850000000000036e-01,1.256619999999999959e-01,2.532010000000000094e-01,1.001540000000000069e-01,7.464600000000000402e-02,1.511699999999999988e-01,1.256619999999999959e-01,4.913900000000000212e-02,1.001540000000000069e-01,1.766770000000000007e-01,3.042159999999999864e-01,3.042159999999999864e-01,2.021850000000000036e-01,1.511699999999999988e-01,1.256619999999999959e-01,1.256619999999999959e-01,1.256619999999999959e-01,7.464600000000000402e-02,2.363099999999999923e-02,2.276930000000000065e-01,2.787080000000000113e-01,1.766770000000000007e-01,1.256619999999999959e-01,2.276930000000000065e-01,1.766770000000000007e-01,2.021850000000000036e-01,1.001540000000000069e-01,-7.839999999999999747e-02,4.913900000000000212e-02,3.042159999999999864e-01,2.532010000000000094e-01,1.511699999999999988e-01,2.276930000000000065e-01,1.766770000000000007e-01,1.766770000000000007e-01,2.363099999999999923e-02,-2.738499999999999962e-02,1.256619999999999959e-01,1.511699999999999988e-01,1.001540000000000069e-01,1.511699999999999988e-01,3.297240000000000171e-01,1.766770000000000007e-01,2.276930000000000065e-01,2.021850000000000036e-01,2.363099999999999923e-02,2.363099999999999923e-02,-2.738499999999999962e-02,2.363099999999999923e-02,2.276930000000000065e-01,1.766770000000000007e-01,1.511699999999999988e-01,3.042159999999999864e-01,2.532010000000000094e-01,1.766770000000000007e-01,7.464600000000000402e-02,1.256619999999999959e-01,1.511699999999999988e-01,2.363099999999999923e-02,1.511699999999999988e-01,2.787080000000000113e-01,1.256619999999999959e-01,2.363099999999999923e-02,2.532010000000000094e-01,1.511699999999999988e-01,1.001540000000000069e-01,1.256619999999999959e-01,2.532010000000000094e-01,1.256619999999999959e-01,-5.289200000000000151e-02,1.256619999999999959e-01,2.532010000000000094e-01,1.256619999999999959e-01,2.787080000000000113e-01,1.511699999999999988e-01,1.256619999999999959e-01,1.766770000000000007e-01,1.256619999999999959e-01,2.021850000000000036e-01,2.532010000000000094e-01,1.256619999999999959e-01,1.256619999999999959e-01,1.511699999999999988e-01,4.913900000000000212e-02,2.363099999999999923e-02,1.511699999999999988e-01,-1.876999999999999979e-03,2.276930000000000065e-01,2.021850000000000036e-01,2.021850000000000036e-01,4.062470000000000248e-01,1.766770000000000007e-01,4.913900000000000212e-02,1.511699999999999988e-01,1.511699999999999988e-01,-1.876999999999999979e-03,7.464600000000000402e-02,1.511699999999999988e-01,1.511699999999999988e-01,2.276930000000000065e-01,1.256619999999999959e-01,1.511699999999999988e-01,1.511699999999999988e-01,2.276930000000000065e-01,1.511699999999999988e-01,1.256619999999999959e-01,-7.839999999999999747e-02,1.001540000000000069e-01,1.766770000000000007e-01,1.001540000000000069e-01,1.256619999999999959e-01,2.532010000000000094e-01,3.297240000000000171e-01,2.021850000000000036e-01,1.766770000000000007e-01,1.001540000000000069e-01,4.913900000000000212e-02,7.464600000000000402e-02,2.532010000000000094e-01,4.913900000000000212e-02,1.001540000000000069e-01,2.276930000000000065e-01,3.297240000000000171e-01,2.276930000000000065e-01,2.363099999999999923e-02,7.464600000000000402e-02,1.256619999999999959e-01,4.913900000000000212e-02,1.766770000000000007e-01,2.276930000000000065e-01,2.276930000000000065e-01,2.021850000000000036e-01,1.256619999999999959e-01,1.256619999999999959e-01,1.256619999999999959e-01,4.913900000000000212e-02,1.766770000000000007e-01,1.766770000000000007e-01,4.913900000000000212e-02,2.276930000000000065e-01,2.021850000000000036e-01,1.766770000000000007e-01,2.787080000000000113e-01,1.511699999999999988e-01,7.464600000000000402e-02,3.042159999999999864e-01,2.363099999999999923e-02,-1.876999999999999979e-03,1.001540000000000069e-01,3.042159999999999864e-01,2.021850000000000036e-01,2.021850000000000036e-01,1.766770000000000007e-01,1.256619999999999959e-01,2.276930000000000065e-01,4.913900000000000212e-02,2.363099999999999923e-02,1.766770000000000007e-01,2.532010000000000094e-01,1.511699999999999988e-01,1.001540000000000069e-01,2.787080000000000113e-01,1.511699999999999988e-01,1.001540000000000069e-01,2.021850000000000036e-01,7.464600000000000402e-02,2.363099999999999923e-02,1.256619999999999959e-01,2.021850000000000036e-01,2.532010000000000094e-01,1.001540000000000069e-01,1.766770000000000007e-01,2.532010000000000094e-01,1.001540000000000069e-01,4.913900000000000212e-02,7.464600000000000402e-02,1.001540000000000069e-01,4.913900000000000212e-02,2.532010000000000094e-01,2.276930000000000065e-01,2.021850000000000036e-01,2.021850000000000036e-01,1.766770000000000007e-01,2.276930000000000065e-01,1.256619999999999959e-01,7.464600000000000402e-02,2.021850000000000036e-01,-1.876999999999999979e-03,-5.289200000000000151e-02,2.021850000000000036e-01,2.787080000000000113e-01,2.787080000000000113e-01,-1.876999999999999979e-03,1.766770000000000007e-01,1.766770000000000007e-01,1.511699999999999988e-01,-5.289200000000000151e-02,1.001540000000000069e-01,2.276930000000000065e-01,1.001540000000000069e-01,1.256619999999999959e-01,2.532010000000000094e-01,2.532010000000000094e-01,2.021850000000000036e-01,4.913900000000000212e-02,1.256619999999999959e-01,1.256619999999999959e-01,4.913900000000000212e-02,-2.738499999999999962e-02,2.276930000000000065e-01,2.276930000000000065e-01,1.256619999999999959e-01,2.021850000000000036e-01,3.552319999999999922e-01,1.256619999999999959e-01,-2.738499999999999962e-02,4.913900000000000212e-02,1.511699999999999988e-01,1.001540000000000069e-01,2.021850000000000036e-01,1.256619999999999959e-01,2.276930000000000065e-01,2.021850000000000036e-01,1.511699999999999988e-01,1.511699999999999988e-01,1.001540000000000069e-01,1.256619999999999959e-01,4.913900000000000212e-02,1.511699999999999988e-01,1.511699999999999988e-01,1.511699999999999988e-01,1.511699999999999988e-01,2.276930000000000065e-01,4.913900000000000212e-02,2.363099999999999923e-02,1.001540000000000069e-01,7.464600000000000402e-02,1.766770000000000007e-01,2.021850000000000036e-01,1.256619999999999959e-01,2.276930000000000065e-01,2.532010000000000094e-01,2.276930000000000065e-01,1.766770000000000007e-01,2.363099999999999923e-02,4.913900000000000212e-02,7.464600000000000402e-02,4.913900000000000212e-02,1.511699999999999988e-01,1.511699999999999988e-01,1.766770000000000007e-01,2.021850000000000036e-01,2.532010000000000094e-01,1.511699999999999988e-01,-1.876999999999999979e-03,1.511699999999999988e-01,-1.876999999999999979e-03,4.913900000000000212e-02,1.766770000000000007e-01,2.532010000000000094e-01,2.276930000000000065e-01,2.276930000000000065e-01,2.276930000000000065e-01,2.021850000000000036e-01,-1.876999999999999979e-03,-5.289200000000000151e-02,2.532010000000000094e-01,2.021850000000000036e-01,1.001540000000000069e-01,2.532010000000000094e-01,1.511699999999999988e-01,1.511699999999999988e-01,1.511699999999999988e-01,1.256619999999999959e-01,2.532010000000000094e-01,2.363099999999999923e-02,7.464600000000000402e-02,1.256619999999999959e-01,7.464600000000000402e-02,1.001540000000000069e-01,2.021850000000000036e-01,2.021850000000000036e-01,1.766770000000000007e-01,2.276930000000000065e-01,1.001540000000000069e-01,4.913900000000000212e-02,4.913900000000000212e-02,4.913900000000000212e-02,1.511699999999999988e-01,1.001540000000000069e-01,1.001540000000000069e-01,3.552319999999999922e-01,3.042159999999999864e-01,-5.289200000000000151e-02,1.256619999999999959e-01,1.511699999999999988e-01,-1.876999999999999979e-03,4.913900000000000212e-02,2.532010000000000094e-01,2.021850000000000036e-01,2.532010000000000094e-01,1.511699999999999988e-01,7.464600000000000402e-02,1.001540000000000069e-01,1.001540000000000069e-01,2.021850000000000036e-01,1.001540000000000069e-01,1.256619999999999959e-01,7.464600000000000402e-02,2.021850000000000036e-01,7.464600000000000402e-02,2.021850000000000036e-01,1.256619999999999959e-01,1.511699999999999988e-01,7.464600000000000402e-02,7.464600000000000402e-02,2.532010000000000094e-01,1.256619999999999959e-01,2.532010000000000094e-01,1.766770000000000007e-01,7.464600000000000402e-02,2.787080000000000113e-01,1.256619999999999959e-01,-1.876999999999999979e-03,2.276930000000000065e-01,1.256619999999999959e-01,1.001540000000000069e-01,1.511699999999999988e-01,2.363099999999999923e-02,1.001540000000000069e-01,7.464600000000000402e-02,1.001540000000000069e-01,2.787080000000000113e-01,2.532010000000000094e-01,1.256619999999999959e-01,7.464600000000000402e-02,1.511699999999999988e-01,1.001540000000000069e-01,2.363099999999999923e-02,2.021850000000000036e-01,2.021850000000000036e-01,2.021850000000000036e-01,1.511699999999999988e-01,1.511699999999999988e-01,2.363099999999999923e-02,-5.289200000000000151e-02,4.913900000000000212e-02,1.511699999999999988e-01,2.363099999999999923e-02,2.276930000000000065e-01,3.807389999999999941e-01,2.276930000000000065e-01,2.276930000000000065e-01,4.913900000000000212e-02,-2.738499999999999962e-02,1.511699999999999988e-01,2.363099999999999923e-02,1.256619999999999959e-01,2.787080000000000113e-01,1.256619999999999959e-01,1.766770000000000007e-01,1.766770000000000007e-01,7.464600000000000402e-02,2.532010000000000094e-01,1.256619999999999959e-01,2.276930000000000065e-01,4.913900000000000212e-02,-5.289200000000000151e-02,1.001540000000000069e-01,1.511699999999999988e-01,1.766770000000000007e-01,2.021850000000000036e-01,1.001540000000000069e-01,2.021850000000000036e-01,1.511699999999999988e-01,1.766770000000000007e-01,2.276930000000000065e-01,7.464600000000000402e-02,1.766770000000000007e-01,1.511699999999999988e-01,4.913900000000000212e-02,2.021850000000000036e-01,3.042159999999999864e-01,-1.876999999999999979e-03,1.511699999999999988e-01,7.464600000000000402e-02,-2.738499999999999962e-02,1.766770000000000007e-01,1.256619999999999959e-01,2.787080000000000113e-01,1.766770000000000007e-01,1.256619999999999959e-01,2.021850000000000036e-01,-5.289200000000000151e-02,2.021850000000000036e-01,1.001540000000000069e-01,2.276930000000000065e-01,2.276930000000000065e-01,1.256619999999999959e-01,2.363099999999999923e-02,4.913900000000000212e-02,2.021850000000000036e-01,2.532010000000000094e-01,2.021850000000000036e-01,7.464600000000000402e-02,4.913900000000000212e-02,7.464600000000000402e-02,1.001540000000000069e-01,1.001540000000000069e-01,1.511699999999999988e-01,2.021850000000000036e-01,2.276930000000000065e-01,1.511699999999999988e-01,1.766770000000000007e-01,4.913900000000000212e-02,4.913900000000000212e-02,7.464600000000000402e-02,1.256619999999999959e-01,7.464600000000000402e-02,1.001540000000000069e-01,2.021850000000000036e-01,2.021850000000000036e-01,2.787080000000000113e-01,4.913900000000000212e-02,2.532010000000000094e-01,1.511699999999999988e-01,2.363099999999999923e-02,1.511699999999999988e-01,2.363099999999999923e-02,1.256619999999999959e-01,1.511699999999999988e-01,1.766770000000000007e-01,1.511699999999999988e-01,2.021850000000000036e-01,2.532010000000000094e-01,1.001540000000000069e-01,7.464600000000000402e-02,4.913900000000000212e-02,1.256619999999999959e-01,1.001540000000000069e-01,2.276930000000000065e-01,1.766770000000000007e-01,2.276930000000000065e-01,2.276930000000000065e-01,1.511699999999999988e-01,2.021850000000000036e-01,2.363099999999999923e-02,1.511699999999999988e-01,1.001540000000000069e-01,1.511699999999999988e-01,1.256619999999999959e-01,1.511699999999999988e-01,2.532010000000000094e-01,2.021850000000000036e-01,1.256619999999999959e-01,1.511699999999999988e-01,7.464600000000000402e-02,7.464600000000000402e-02,2.021850000000000036e-01,4.913900000000000212e-02,2.021850000000000036e-01,1.511699999999999988e-01,2.276930000000000065e-01,2.021850000000000036e-01,1.001540000000000069e-01,1.766770000000000007e-01,2.021850000000000036e-01,1.511699999999999988e-01,-5.289200000000000151e-02,2.532010000000000094e-01,1.001540000000000069e-01,2.276930000000000065e-01,1.511699999999999988e-01,1.001540000000000069e-01,2.532010000000000094e-01,4.913900000000000212e-02,4.913900000000000212e-02,1.511699999999999988e-01,1.511699999999999988e-01,1.511699999999999988e-01,1.256619999999999959e-01,1.511699999999999988e-01,2.532010000000000094e-01,1.511699999999999988e-01,1.511699999999999988e-01,2.532010000000000094e-01,-5.289200000000000151e-02,1.256619999999999959e-01,1.511699999999999988e-01,1.511699999999999988e-01,2.532010000000000094e-01,1.001540000000000069e-01,1.766770000000000007e-01,2.021850000000000036e-01,1.511699999999999988e-01,7.464600000000000402e-02,4.913900000000000212e-02,2.276930000000000065e-01,1.001540000000000069e-01,1.511699999999999988e-01,1.766770000000000007e-01,1.001540000000000069e-01,2.021850000000000036e-01,1.256619999999999959e-01,1.001540000000000069e-01,1.001540000000000069e-01,1.511699999999999988e-01,2.532010000000000094e-01,7.464600000000000402e-02,1.256619999999999959e-01,2.532010000000000094e-01,7.464600000000000402e-02,1.766770000000000007e-01,1.001540000000000069e-01,7.464600000000000402e-02,2.787080000000000113e-01,2.363099999999999923e-02,1.511699999999999988e-01,1.511699999999999988e-01,1.511699999999999988e-01,1.001540000000000069e-01,2.363099999999999923e-02,2.021850000000000036e-01,2.276930000000000065e-01,7.464600000000000402e-02,1.256619999999999959e-01,2.021850000000000036e-01,4.913900000000000212e-02,1.001540000000000069e-01,2.021850000000000036e-01,7.464600000000000402e-02,3.042159999999999864e-01,1.766770000000000007e-01,2.787080000000000113e-01,7.464600000000000402e-02,-2.738499999999999962e-02,1.001540000000000069e-01,2.363099999999999923e-02,1.511699999999999988e-01,2.532010000000000094e-01,1.511699999999999988e-01,1.511699999999999988e-01,1.511699999999999988e-01,1.511699999999999988e-01,2.276930000000000065e-01,1.256619999999999959e-01,7.464600000000000402e-02,1.766770000000000007e-01,1.001540000000000069e-01,2.276930000000000065e-01,1.511699999999999988e-01,1.766770000000000007e-01,1.001540000000000069e-01,4.913900000000000212e-02,2.787080000000000113e-01,4.913900000000000212e-02,1.766770000000000007e-01,2.532010000000000094e-01,1.766770000000000007e-01,4.913900000000000212e-02,1.511699999999999988e-01,1.511699999999999988e-01,7.464600000000000402e-02,1.256619999999999959e-01,1.256619999999999959e-01,4.913900000000000212e-02,1.511699999999999988e-01,1.001540000000000069e-01,-1.876999999999999979e-03,4.062470000000000248e-01,4.062470000000000248e-01,1.511699999999999988e-01,-2.738499999999999962e-02,1.511699999999999988e-01,2.021850000000000036e-01,1.256619999999999959e-01,4.913900000000000212e-02,-1.876999999999999979e-03,2.532010000000000094e-01,1.511699999999999988e-01,1.001540000000000069e-01,2.021850000000000036e-01,4.913900000000000212e-02,1.511699999999999988e-01,2.532010000000000094e-01,1.511699999999999988e-01,1.511699999999999988e-01,1.511699999999999988e-01,-2.738499999999999962e-02,2.532010000000000094e-01,1.256619999999999959e-01,1.511699999999999988e-01,1.001540000000000069e-01,1.001540000000000069e-01,2.021850000000000036e-01,1.256619999999999959e-01,7.464600000000000402e-02,2.276930000000000065e-01,2.787080000000000113e-01,1.511699999999999988e-01,1.511699999999999988e-01,1.256619999999999959e-01,-1.876999999999999979e-03,1.511699999999999988e-01,1.511699999999999988e-01,4.913900000000000212e-02,1.766770000000000007e-01,2.276930000000000065e-01,-2.738499999999999962e-02,2.532010000000000094e-01,2.532010000000000094e-01,7.464600000000000402e-02,2.021850000000000036e-01,2.276930000000000065e-01,1.511699999999999988e-01,-2.738499999999999962e-02,1.511699999999999988e-01,2.021850000000000036e-01,1.766770000000000007e-01,-1.876999999999999979e-03,1.766770000000000007e-01,2.532010000000000094e-01,3.297240000000000171e-01,1.766770000000000007e-01,4.913900000000000212e-02,1.766770000000000007e-01,4.913900000000000212e-02,7.464600000000000402e-02,7.464600000000000402e-02,2.787080000000000113e-01,2.276930000000000065e-01,1.766770000000000007e-01,1.001540000000000069e-01,1.511699999999999988e-01,1.511699999999999988e-01,1.511699999999999988e-01,1.001540000000000069e-01,1.256619999999999959e-01,1.511699999999999988e-01,1.001540000000000069e-01,2.532010000000000094e-01,2.532010000000000094e-01,1.256619999999999959e-01,1.001540000000000069e-01,2.532010000000000094e-01,2.787080000000000113e-01,4.913900000000000212e-02,2.363099999999999923e-02,-5.289200000000000151e-02,1.256619999999999959e-01,2.276930000000000065e-01,1.766770000000000007e-01,1.766770000000000007e-01,2.276930000000000065e-01,2.532010000000000094e-01,1.256619999999999959e-01,4.913900000000000212e-02,1.256619999999999959e-01,2.276930000000000065e-01,2.276930000000000065e-01,2.276930000000000065e-01,2.021850000000000036e-01,2.532010000000000094e-01,1.511699999999999988e-01,-1.876999999999999979e-03,4.913900000000000212e-02,1.256619999999999959e-01,1.511699999999999988e-01,1.511699999999999988e-01,1.766770000000000007e-01,1.766770000000000007e-01,2.532010000000000094e-01,2.532010000000000094e-01,3.042159999999999864e-01,1.256619999999999959e-01,2.363099999999999923e-02,-1.876999999999999979e-03,1.001540000000000069e-01,1.256619999999999959e-01,1.256619999999999959e-01,2.787080000000000113e-01,2.276930000000000065e-01,1.001540000000000069e-01,7.464600000000000402e-02,1.256619999999999959e-01,2.532010000000000094e-01,1.001540000000000069e-01,-1.876999999999999979e-03,7.464600000000000402e-02,2.787080000000000113e-01,1.511699999999999988e-01,2.021850000000000036e-01,1.001540000000000069e-01,7.464600000000000402e-02,1.766770000000000007e-01,1.001540000000000069e-01,1.001540000000000069e-01,2.276930000000000065e-01,1.256619999999999959e-01,1.001540000000000069e-01,2.021850000000000036e-01,1.766770000000000007e-01,1.256619999999999959e-01,7.464600000000000402e-02,1.511699999999999988e-01,1.001540000000000069e-01,-5.289200000000000151e-02,1.766770000000000007e-01,1.511699999999999988e-01,1.001540000000000069e-01,1.256619999999999959e-01,3.042159999999999864e-01,1.256619999999999959e-01,-2.738499999999999962e-02,1.511699999999999988e-01,2.021850000000000036e-01,-5.289200000000000151e-02,1.766770000000000007e-01,2.787080000000000113e-01,1.001540000000000069e-01,4.913900000000000212e-02,2.532010000000000094e-01,1.001540000000000069e-01,3.297240000000000171e-01,2.532010000000000094e-01,2.363099999999999923e-02,1.511699999999999988e-01,4.913900000000000212e-02,1.256619999999999959e-01,1.766770000000000007e-01,7.464600000000000402e-02,1.256619999999999959e-01,1.001540000000000069e-01,1.766770000000000007e-01,1.511699999999999988e-01,-1.876999999999999979e-03,1.001540000000000069e-01,2.532010000000000094e-01,4.913900000000000212e-02,2.532010000000000094e-01,1.001540000000000069e-01,1.766770000000000007e-01,2.276930000000000065e-01,1.001540000000000069e-01,2.787080000000000113e-01,1.256619999999999959e-01,-7.839999999999999747e-02,1.511699999999999988e-01,7.464600000000000402e-02,2.532010000000000094e-01,2.787080000000000113e-01,2.021850000000000036e-01,2.021850000000000036e-01,2.787080000000000113e-01,1.256619999999999959e-01,4.913900000000000212e-02,-1.876999999999999979e-03,2.363099999999999923e-02,7.464600000000000402e-02,2.532010000000000094e-01,1.256619999999999959e-01,2.532010000000000094e-01,1.766770000000000007e-01,1.511699999999999988e-01,-2.738499999999999962e-02,1.256619999999999959e-01,1.256619999999999959e-01,1.511699999999999988e-01,7.464600000000000402e-02,1.766770000000000007e-01,3.297240000000000171e-01,1.511699999999999988e-01,1.001540000000000069e-01,7.464600000000000402e-02,4.913900000000000212e-02,1.511699999999999988e-01,1.256619999999999959e-01,2.276930000000000065e-01,1.001540000000000069e-01,1.511699999999999988e-01,2.276930000000000065e-01,1.511699999999999988e-01,1.511699999999999988e-01,2.276930000000000065e-01,2.276930000000000065e-01,1.001540000000000069e-01,1.511699999999999988e-01,1.001540000000000069e-01,-1.876999999999999979e-03,2.021850000000000036e-01,1.511699999999999988e-01,2.532010000000000094e-01,3.552319999999999922e-01,7.464600000000000402e-02,1.001540000000000069e-01,7.464600000000000402e-02,-2.738499999999999962e-02,1.001540000000000069e-01,2.532010000000000094e-01,1.001540000000000069e-01,1.001540000000000069e-01,2.787080000000000113e-01,1.766770000000000007e-01,1.001540000000000069e-01,2.276930000000000065e-01,-2.738499999999999962e-02,1.511699999999999988e-01,7.464600000000000402e-02,1.511699999999999988e-01,2.021850000000000036e-01,1.511699999999999988e-01,1.511699999999999988e-01,1.001540000000000069e-01,1.256619999999999959e-01,2.021850000000000036e-01,1.001540000000000069e-01,4.913900000000000212e-02,1.001540000000000069e-01,1.766770000000000007e-01,2.021850000000000036e-01,1.766770000000000007e-01,2.532010000000000094e-01,1.766770000000000007e-01,1.766770000000000007e-01,1.766770000000000007e-01,2.276930000000000065e-01,2.363099999999999923e-02,1.001540000000000069e-01,4.913900000000000212e-02,1.256619999999999959e-01,1.766770000000000007e-01,2.276930000000000065e-01,1.511699999999999988e-01,7.464600000000000402e-02,1.511699999999999988e-01,1.511699999999999988e-01,-1.876999999999999979e-03,4.913900000000000212e-02,7.464600000000000402e-02,1.256619999999999959e-01,2.787080000000000113e-01,2.021850000000000036e-01,2.532010000000000094e-01,2.532010000000000094e-01,4.913900000000000212e-02,7.464600000000000402e-02,1.001540000000000069e-01,1.511699999999999988e-01,2.363099999999999923e-02,2.787080000000000113e-01,1.256619999999999959e-01,7.464600000000000402e-02,2.532010000000000094e-01,2.021850000000000036e-01,4.913900000000000212e-02,1.001540000000000069e-01,1.001540000000000069e-01,2.021850000000000036e-01,7.464600000000000402e-02,1.511699999999999988e-01,1.511699999999999988e-01,1.001540000000000069e-01,1.766770000000000007e-01,1.511699999999999988e-01,4.913900000000000212e-02,1.766770000000000007e-01,1.766770000000000007e-01,2.363099999999999923e-02,7.464600000000000402e-02,1.001540000000000069e-01,1.766770000000000007e-01,1.766770000000000007e-01,2.021850000000000036e-01,1.766770000000000007e-01,1.766770000000000007e-01,1.766770000000000007e-01,4.913900000000000212e-02,-1.549230000000000051e-01,7.464600000000000402e-02,2.532010000000000094e-01,1.766770000000000007e-01,1.256619999999999959e-01,1.256619999999999959e-01,1.511699999999999988e-01,2.787080000000000113e-01,4.913900000000000212e-02,7.464600000000000402e-02,2.021850000000000036e-01,4.913900000000000212e-02,1.511699999999999988e-01,2.276930000000000065e-01,2.276930000000000065e-01,1.001540000000000069e-01,1.256619999999999959e-01,2.021850000000000036e-01,1.001540000000000069e-01,1.001540000000000069e-01,1.511699999999999988e-01,2.532010000000000094e-01,1.511699999999999988e-01,7.464600000000000402e-02,1.256619999999999959e-01,2.276930000000000065e-01,1.256619999999999959e-01,1.001540000000000069e-01,7.464600000000000402e-02,2.276930000000000065e-01,1.001540000000000069e-01,-1.876999999999999979e-03,2.787080000000000113e-01,3.042159999999999864e-01,1.256619999999999959e-01,3.552319999999999922e-01,1.511699999999999988e-01,-1.876999999999999979e-03,4.913900000000000212e-02,1.001540000000000069e-01,2.363099999999999923e-02,1.766770000000000007e-01,2.787080000000000113e-01,2.787080000000000113e-01,1.001540000000000069e-01,1.511699999999999988e-01,1.766770000000000007e-01,1.001540000000000069e-01,7.464600000000000402e-02,1.766770000000000007e-01,2.363099999999999923e-02,-1.876999999999999979e-03,1.256619999999999959e-01,1.256619999999999959e-01,2.276930000000000065e-01,2.021850000000000036e-01,1.511699999999999988e-01,1.256619999999999959e-01,4.913900000000000212e-02,2.276930000000000065e-01,1.001540000000000069e-01,4.913900000000000212e-02,1.511699999999999988e-01,1.766770000000000007e-01,2.787080000000000113e-01,7.464600000000000402e-02,2.021850000000000036e-01,2.276930000000000065e-01,1.256619999999999959e-01,-5.289200000000000151e-02,-5.289200000000000151e-02,1.001540000000000069e-01,2.532010000000000094e-01,3.042159999999999864e-01,3.807389999999999941e-01,2.532010000000000094e-01,7.464600000000000402e-02,4.913900000000000212e-02,1.001540000000000069e-01,1.001540000000000069e-01,-7.839999999999999747e-02,2.021850000000000036e-01,1.766770000000000007e-01,1.511699999999999988e-01,1.511699999999999988e-01,2.532010000000000094e-01,1.256619999999999959e-01,1.256619999999999959e-01,1.256619999999999959e-01,1.001540000000000069e-01,2.276930000000000065e-01,2.363099999999999923e-02,1.766770000000000007e-01,1.511699999999999988e-01,1.001540000000000069e-01,1.766770000000000007e-01,1.256619999999999959e-01,1.001540000000000069e-01,-5.289200000000000151e-02,4.913900000000000212e-02,1.511699999999999988e-01,3.042159999999999864e-01,1.766770000000000007e-01,2.276930000000000065e-01,2.276930000000000065e-01,1.511699999999999988e-01,2.276930000000000065e-01,7.464600000000000402e-02,-7.839999999999999747e-02,2.363099999999999923e-02,1.766770000000000007e-01,1.001540000000000069e-01,2.021850000000000036e-01,2.532010000000000094e-01,1.511699999999999988e-01,2.787080000000000113e-01,1.511699999999999988e-01,2.363099999999999923e-02,1.001540000000000069e-01,-2.738499999999999962e-02,4.913900000000000212e-02,1.766770000000000007e-01,1.766770000000000007e-01,1.511699999999999988e-01,2.532010000000000094e-01,1.511699999999999988e-01,1.766770000000000007e-01,2.276930000000000065e-01,4.913900000000000212e-02,2.276930000000000065e-01,2.021850000000000036e-01,4.913900000000000212e-02,1.766770000000000007e-01,2.021850000000000036e-01,1.256619999999999959e-01,4.913900000000000212e-02,1.511699999999999988e-01,1.511699999999999988e-01,-2.738499999999999962e-02,1.001540000000000069e-01,-2.738499999999999962e-02,1.256619999999999959e-01,2.276930000000000065e-01,1.511699999999999988e-01,2.532010000000000094e-01,2.787080000000000113e-01,1.511699999999999988e-01,1.766770000000000007e-01,2.276930000000000065e-01,7.464600000000000402e-02,1.511699999999999988e-01,1.256619999999999959e-01,1.001540000000000069e-01,2.021850000000000036e-01,2.276930000000000065e-01,1.511699999999999988e-01,7.464600000000000402e-02,1.001540000000000069e-01,2.363099999999999923e-02,4.913900000000000212e-02,1.766770000000000007e-01,1.001540000000000069e-01,7.464600000000000402e-02,2.787080000000000113e-01,2.787080000000000113e-01,1.511699999999999988e-01,1.511699999999999988e-01,1.766770000000000007e-01,1.001540000000000069e-01,-1.876999999999999979e-03,1.766770000000000007e-01,4.913900000000000212e-02,4.913900000000000212e-02,3.042159999999999864e-01,2.532010000000000094e-01,1.256619999999999959e-01,4.913900000000000212e-02,1.256619999999999959e-01,1.766770000000000007e-01,1.256619999999999959e-01,2.363099999999999923e-02,1.511699999999999988e-01,1.511699999999999988e-01,1.511699999999999988e-01,1.766770000000000007e-01,2.532010000000000094e-01,2.021850000000000036e-01,-2.738499999999999962e-02,7.464600000000000402e-02,2.276930000000000065e-01,4.913900000000000212e-02,1.001540000000000069e-01,3.297240000000000171e-01,1.766770000000000007e-01,1.256619999999999959e-01,7.464600000000000402e-02,1.511699999999999988e-01,1.256619999999999959e-01,7.464600000000000402e-02,7.464600000000000402e-02,1.766770000000000007e-01,4.913900000000000212e-02,1.511699999999999988e-01,2.276930000000000065e-01,3.297240000000000171e-01,3.042159999999999864e-01,1.001540000000000069e-01,1.511699999999999988e-01,1.511699999999999988e-01,-5.289200000000000151e-02,2.363099999999999923e-02,2.363099999999999923e-02,3.042159999999999864e-01,3.042159999999999864e-01,1.766770000000000007e-01,2.363099999999999923e-02,7.464600000000000402e-02,2.532010000000000094e-01,7.464600000000000402e-02,2.363099999999999923e-02,7.464600000000000402e-02,2.021850000000000036e-01,1.001540000000000069e-01,2.276930000000000065e-01,3.297240000000000171e-01,2.021850000000000036e-01,7.464600000000000402e-02,1.001540000000000069e-01,1.001540000000000069e-01,2.363099999999999923e-02,1.511699999999999988e-01,4.913900000000000212e-02,1.766770000000000007e-01,3.042159999999999864e-01,1.511699999999999988e-01,1.511699999999999988e-01,1.766770000000000007e-01,7.464600000000000402e-02,-7.839999999999999747e-02,1.511699999999999988e-01,1.256619999999999959e-01,-1.039080000000000004e-01,2.021850000000000036e-01,3.297240000000000171e-01,2.276930000000000065e-01,2.787080000000000113e-01,2.276930000000000065e-01,1.511699999999999988e-01,4.913900000000000212e-02,4.913900000000000212e-02,1.001540000000000069e-01,4.913900000000000212e-02,2.276930000000000065e-01,1.511699999999999988e-01,1.256619999999999959e-01,1.766770000000000007e-01,1.766770000000000007e-01,1.001540000000000069e-01,1.511699999999999988e-01,2.276930000000000065e-01,2.276930000000000065e-01,1.001540000000000069e-01,1.511699999999999988e-01,2.276930000000000065e-01,1.511699999999999988e-01,1.766770000000000007e-01,4.913900000000000212e-02,2.021850000000000036e-01,2.021850000000000036e-01,4.913900000000000212e-02,4.913900000000000212e-02,-5.289200000000000151e-02,1.001540000000000069e-01,3.297240000000000171e-01,2.276930000000000065e-01,2.021850000000000036e-01,2.532010000000000094e-01,1.766770000000000007e-01,2.363099999999999923e-02,1.001540000000000069e-01,1.766770000000000007e-01,4.913900000000000212e-02,1.511699999999999988e-01,1.511699999999999988e-01,7.464600000000000402e-02,1.256619999999999959e-01,1.001540000000000069e-01,1.256619999999999959e-01,1.511699999999999988e-01,1.766770000000000007e-01,1.256619999999999959e-01,-5.289200000000000151e-02,2.021850000000000036e-01,2.532010000000000094e-01,1.256619999999999959e-01,2.532010000000000094e-01,2.787080000000000113e-01,1.511699999999999988e-01,7.464600000000000402e-02,7.464600000000000402e-02,1.766770000000000007e-01,1.256619999999999959e-01,1.256619999999999959e-01,1.766770000000000007e-01,1.511699999999999988e-01,1.511699999999999988e-01,1.511699999999999988e-01,1.766770000000000007e-01,2.363099999999999923e-02,2.276930000000000065e-01,1.256619999999999959e-01,4.913900000000000212e-02,2.021850000000000036e-01,7.464600000000000402e-02,1.256619999999999959e-01,2.276930000000000065e-01,1.256619999999999959e-01,1.511699999999999988e-01,1.511699999999999988e-01,4.913900000000000212e-02,1.001540000000000069e-01,2.021850000000000036e-01,2.532010000000000094e-01,1.511699999999999988e-01,1.256619999999999959e-01,2.532010000000000094e-01,7.464600000000000402e-02,2.276930000000000065e-01,1.511699999999999988e-01,4.913900000000000212e-02,7.464600000000000402e-02,7.464600000000000402e-02,2.532010000000000094e-01,1.766770000000000007e-01,4.913900000000000212e-02,1.001540000000000069e-01,2.021850000000000036e-01,1.256619999999999959e-01,1.766770000000000007e-01,1.511699999999999988e-01,2.363099999999999923e-02,7.464600000000000402e-02,1.766770000000000007e-01,2.787080000000000113e-01,1.511699999999999988e-01,1.256619999999999959e-01,1.766770000000000007e-01,2.276930000000000065e-01,1.256619999999999959e-01,-2.738499999999999962e-02,-5.289200000000000151e-02,1.511699999999999988e-01,3.042159999999999864e-01,1.511699999999999988e-01,2.021850000000000036e-01,7.464600000000000402e-02,1.511699999999999988e-01,2.021850000000000036e-01,7.464600000000000402e-02,-1.876999999999999979e-03,1.256619999999999959e-01,2.021850000000000036e-01,2.021850000000000036e-01,2.276930000000000065e-01,1.001540000000000069e-01,2.276930000000000065e-01,2.021850000000000036e-01,1.511699999999999988e-01,4.913900000000000212e-02,7.464600000000000402e-02,1.256619999999999959e-01,4.913900000000000212e-02,-1.039080000000000004e-01,1.766770000000000007e-01,2.532010000000000094e-01,4.317549999999999999e-01,1.511699999999999988e-01,1.511699999999999988e-01,1.001540000000000069e-01,-1.039080000000000004e-01,4.913900000000000212e-02,3.297240000000000171e-01,1.511699999999999988e-01,1.256619999999999959e-01,1.766770000000000007e-01,2.532010000000000094e-01,2.276930000000000065e-01,2.021850000000000036e-01,7.464600000000000402e-02,7.464600000000000402e-02,7.464600000000000402e-02,1.001540000000000069e-01,1.511699999999999988e-01,7.464600000000000402e-02,1.766770000000000007e-01,2.276930000000000065e-01,1.511699999999999988e-01,1.256619999999999959e-01,2.021850000000000036e-01,2.021850000000000036e-01,7.464600000000000402e-02,1.001540000000000069e-01,1.256619999999999959e-01,1.766770000000000007e-01,1.766770000000000007e-01,7.464600000000000402e-02,1.511699999999999988e-01,2.276930000000000065e-01,2.021850000000000036e-01,4.913900000000000212e-02,1.256619999999999959e-01,1.511699999999999988e-01,1.511699999999999988e-01,7.464600000000000402e-02,2.021850000000000036e-01,2.787080000000000113e-01,1.766770000000000007e-01,1.001540000000000069e-01,1.511699999999999988e-01,-1.876999999999999979e-03,-2.738499999999999962e-02,7.464600000000000402e-02,2.276930000000000065e-01,1.001540000000000069e-01,1.766770000000000007e-01,3.297240000000000171e-01,1.766770000000000007e-01,1.001540000000000069e-01,1.256619999999999959e-01,1.001540000000000069e-01,4.913900000000000212e-02,-1.876999999999999979e-03,2.276930000000000065e-01,2.532010000000000094e-01,1.001540000000000069e-01,1.256619999999999959e-01,1.511699999999999988e-01,2.363099999999999923e-02,1.511699999999999988e-01,2.021850000000000036e-01,-2.738499999999999962e-02,1.256619999999999959e-01,1.001540000000000069e-01,4.913900000000000212e-02,1.511699999999999988e-01,1.001540000000000069e-01,2.021850000000000036e-01,1.511699999999999988e-01,2.021850000000000036e-01,1.766770000000000007e-01,2.021850000000000036e-01,1.256619999999999959e-01,1.001540000000000069e-01,2.787080000000000113e-01,-1.876999999999999979e-03,1.511699999999999988e-01,1.001540000000000069e-01,1.511699999999999988e-01,1.766770000000000007e-01,7.464600000000000402e-02,1.001540000000000069e-01,2.021850000000000036e-01,4.913900000000000212e-02,1.766770000000000007e-01,1.256619999999999959e-01,1.766770000000000007e-01,2.021850000000000036e-01,1.001540000000000069e-01,2.532010000000000094e-01,1.511699999999999988e-01,1.766770000000000007e-01,-1.876999999999999979e-03,4.913900000000000212e-02,3.042159999999999864e-01,4.913900000000000212e-02,1.511699999999999988e-01,2.787080000000000113e-01,1.511699999999999988e-01,1.256619999999999959e-01,1.766770000000000007e-01,7.464600000000000402e-02,1.511699999999999988e-01,1.001540000000000069e-01,1.001540000000000069e-01,3.552319999999999922e-01,-2.738499999999999962e-02,1.511699999999999988e-01,1.256619999999999959e-01,4.913900000000000212e-02,1.001540000000000069e-01,2.532010000000000094e-01,1.511699999999999988e-01,1.511699999999999988e-01,2.276930000000000065e-01,2.532010000000000094e-01,1.511699999999999988e-01,7.464600000000000402e-02,-1.876999999999999979e-03,4.913900000000000212e-02,1.766770000000000007e-01,1.511699999999999988e-01,1.511699999999999988e-01,2.363099999999999923e-02,1.766770000000000007e-01,2.276930000000000065e-01,2.532010000000000094e-01,2.532010000000000094e-01,1.766770000000000007e-01,4.913900000000000212e-02,2.363099999999999923e-02,4.913900000000000212e-02,4.913900000000000212e-02,7.464600000000000402e-02,2.276930000000000065e-01,2.532010000000000094e-01,1.511699999999999988e-01,7.464600000000000402e-02,4.913900000000000212e-02,2.021850000000000036e-01,2.021850000000000036e-01,1.511699999999999988e-01,1.766770000000000007e-01,2.276930000000000065e-01,2.276930000000000065e-01,1.766770000000000007e-01,2.363099999999999923e-02,4.913900000000000212e-02,1.001540000000000069e-01,4.913900000000000212e-02,4.913900000000000212e-02,-5.289200000000000151e-02,1.256619999999999959e-01,2.787080000000000113e-01,2.276930000000000065e-01,3.297240000000000171e-01,2.787080000000000113e-01,7.464600000000000402e-02,1.256619999999999959e-01,1.511699999999999988e-01,2.363099999999999923e-02,4.913900000000000212e-02,4.913900000000000212e-02,1.766770000000000007e-01,1.511699999999999988e-01,1.766770000000000007e-01,1.256619999999999959e-01,1.766770000000000007e-01,1.766770000000000007e-01,1.766770000000000007e-01,7.464600000000000402e-02,1.001540000000000069e-01,2.787080000000000113e-01,2.021850000000000036e-01,2.363099999999999923e-02,7.464600000000000402e-02,1.256619999999999959e-01,7.464600000000000402e-02,7.464600000000000402e-02,1.511699999999999988e-01,1.511699999999999988e-01,7.464600000000000402e-02,2.276930000000000065e-01,1.511699999999999988e-01,2.276930000000000065e-01,2.021850000000000036e-01,2.276930000000000065e-01,2.276930000000000065e-01,7.464600000000000402e-02,1.766770000000000007e-01,2.363099999999999923e-02,1.511699999999999988e-01,1.511699999999999988e-01,4.913900000000000212e-02,1.256619999999999959e-01,1.511699999999999988e-01,1.766770000000000007e-01,2.021850000000000036e-01,2.363099999999999923e-02,1.511699999999999988e-01,4.913900000000000212e-02,4.913900000000000212e-02,1.766770000000000007e-01,1.511699999999999988e-01,2.021850000000000036e-01,3.042159999999999864e-01,1.001540000000000069e-01,1.511699999999999988e-01,1.256619999999999959e-01,4.913900000000000212e-02,1.766770000000000007e-01,2.532010000000000094e-01,-2.738499999999999962e-02,1.766770000000000007e-01,1.511699999999999988e-01,1.256619999999999959e-01,1.766770000000000007e-01,1.766770000000000007e-01,-1.876999999999999979e-03,7.464600000000000402e-02,1.256619999999999959e-01,7.464600000000000402e-02,2.276930000000000065e-01,1.001540000000000069e-01,1.766770000000000007e-01,1.256619999999999959e-01,4.913900000000000212e-02,2.021850000000000036e-01,2.276930000000000065e-01,1.511699999999999988e-01,1.001540000000000069e-01,1.511699999999999988e-01,-1.876999999999999979e-03,1.001540000000000069e-01,1.511699999999999988e-01,2.021850000000000036e-01,1.256619999999999959e-01,1.256619999999999959e-01,1.766770000000000007e-01,2.363099999999999923e-02,3.042159999999999864e-01,1.256619999999999959e-01,4.913900000000000212e-02,1.511699999999999988e-01,1.766770000000000007e-01,2.532010000000000094e-01,1.766770000000000007e-01,4.913900000000000212e-02,1.256619999999999959e-01,1.766770000000000007e-01,1.511699999999999988e-01,1.511699999999999988e-01,7.464600000000000402e-02,4.913900000000000212e-02,1.766770000000000007e-01,2.276930000000000065e-01,2.021850000000000036e-01,7.464600000000000402e-02,2.363099999999999923e-02,7.464600000000000402e-02,7.464600000000000402e-02,1.766770000000000007e-01,1.511699999999999988e-01,1.511699999999999988e-01,2.532010000000000094e-01,2.276930000000000065e-01,2.276930000000000065e-01,1.001540000000000069e-01,1.256619999999999959e-01,1.766770000000000007e-01,1.001540000000000069e-01,1.001540000000000069e-01,-5.289200000000000151e-02,1.766770000000000007e-01,1.766770000000000007e-01,2.532010000000000094e-01,1.001540000000000069e-01,1.001540000000000069e-01,1.511699999999999988e-01,2.021850000000000036e-01,1.511699999999999988e-01,1.511699999999999988e-01,-5.289200000000000151e-02,1.001540000000000069e-01,1.766770000000000007e-01,1.766770000000000007e-01,2.021850000000000036e-01,1.511699999999999988e-01,4.913900000000000212e-02,1.511699999999999988e-01,1.256619999999999959e-01,1.256619999999999959e-01,-1.876999999999999979e-03,7.464600000000000402e-02,7.464600000000000402e-02,1.256619999999999959e-01,2.021850000000000036e-01,2.787080000000000113e-01,2.021850000000000036e-01,4.913900000000000212e-02,4.913900000000000212e-02,2.276930000000000065e-01,4.913900000000000212e-02,1.256619999999999959e-01,2.021850000000000036e-01,2.021850000000000036e-01,1.511699999999999988e-01,1.001540000000000069e-01,1.766770000000000007e-01,1.766770000000000007e-01,1.256619999999999959e-01,1.256619999999999959e-01,4.913900000000000212e-02,2.021850000000000036e-01,1.511699999999999988e-01,1.766770000000000007e-01,1.511699999999999988e-01,1.766770000000000007e-01,2.021850000000000036e-01,2.021850000000000036e-01,-2.738499999999999962e-02,1.001540000000000069e-01,-1.876999999999999979e-03,-1.876999999999999979e-03,4.317549999999999999e-01,2.787080000000000113e-01,7.464600000000000402e-02,2.276930000000000065e-01,2.532010000000000094e-01,1.766770000000000007e-01,2.363099999999999923e-02,1.001540000000000069e-01,7.464600000000000402e-02,3.042159999999999864e-01,2.276930000000000065e-01,7.464600000000000402e-02,4.913900000000000212e-02,-1.876999999999999979e-03,7.464600000000000402e-02,1.766770000000000007e-01,2.021850000000000036e-01,1.256619999999999959e-01,1.766770000000000007e-01,2.532010000000000094e-01,2.787080000000000113e-01,1.001540000000000069e-01,1.766770000000000007e-01,2.021850000000000036e-01,1.511699999999999988e-01,-1.876999999999999979e-03,1.511699999999999988e-01,1.766770000000000007e-01,4.913900000000000212e-02,7.464600000000000402e-02,2.021850000000000036e-01,3.552319999999999922e-01,2.021850000000000036e-01,2.363099999999999923e-02,1.001540000000000069e-01,1.001540000000000069e-01,7.464600000000000402e-02,-5.289200000000000151e-02,1.256619999999999959e-01,3.042159999999999864e-01,2.532010000000000094e-01,1.511699999999999988e-01,2.276930000000000065e-01,1.511699999999999988e-01,4.913900000000000212e-02,1.256619999999999959e-01,1.511699999999999988e-01,1.256619999999999959e-01,1.001540000000000069e-01,3.297240000000000171e-01,1.256619999999999959e-01,-1.876999999999999979e-03,1.256619999999999959e-01,2.021850000000000036e-01,-1.876999999999999979e-03,1.766770000000000007e-01,1.511699999999999988e-01,2.363099999999999923e-02,2.276930000000000065e-01,2.276930000000000065e-01,1.511699999999999988e-01,1.001540000000000069e-01,2.021850000000000036e-01,2.532010000000000094e-01,1.766770000000000007e-01,7.464600000000000402e-02,-2.738499999999999962e-02,1.511699999999999988e-01,7.464600000000000402e-02,1.001540000000000069e-01,7.464600000000000402e-02,1.511699999999999988e-01,2.787080000000000113e-01,1.766770000000000007e-01,2.363099999999999923e-02,7.464600000000000402e-02,2.021850000000000036e-01,1.766770000000000007e-01,2.363099999999999923e-02,1.001540000000000069e-01,2.532010000000000094e-01,3.297240000000000171e-01,2.276930000000000065e-01,1.511699999999999988e-01,1.256619999999999959e-01,2.021850000000000036e-01,4.913900000000000212e-02,2.363099999999999923e-02,7.464600000000000402e-02,2.532010000000000094e-01,1.511699999999999988e-01,1.511699999999999988e-01,2.021850000000000036e-01,4.913900000000000212e-02,2.363099999999999923e-02,1.256619999999999959e-01,2.276930000000000065e-01,1.511699999999999988e-01,2.276930000000000065e-01,2.532010000000000094e-01,1.511699999999999988e-01,7.464600000000000402e-02,1.256619999999999959e-01,2.021850000000000036e-01,2.532010000000000094e-01,7.464600000000000402e-02,7.464600000000000402e-02,1.511699999999999988e-01,2.363099999999999923e-02,2.532010000000000094e-01,1.256619999999999959e-01,1.001540000000000069e-01,1.001540000000000069e-01,1.511699999999999988e-01,1.766770000000000007e-01,7.464600000000000402e-02,4.913900000000000212e-02,1.256619999999999959e-01,2.532010000000000094e-01,1.001540000000000069e-01,1.256619999999999959e-01,1.766770000000000007e-01,1.766770000000000007e-01,1.511699999999999988e-01,1.001540000000000069e-01,1.511699999999999988e-01,1.256619999999999959e-01,1.001540000000000069e-01,2.363099999999999923e-02,1.511699999999999988e-01,1.511699999999999988e-01,1.511699999999999988e-01,2.363099999999999923e-02,2.276930000000000065e-01,3.042159999999999864e-01,2.276930000000000065e-01,1.511699999999999988e-01,2.363099999999999923e-02,-5.289200000000000151e-02,4.913900000000000212e-02,2.276930000000000065e-01,1.511699999999999988e-01,2.276930000000000065e-01,3.042159999999999864e-01,1.511699999999999988e-01,7.464600000000000402e-02,2.363099999999999923e-02,1.256619999999999959e-01,7.464600000000000402e-02,2.532010000000000094e-01,3.042159999999999864e-01,1.766770000000000007e-01,1.511699999999999988e-01,1.766770000000000007e-01,1.511699999999999988e-01,1.001540000000000069e-01,2.363099999999999923e-02,1.256619999999999959e-01,2.276930000000000065e-01,1.001540000000000069e-01,2.363099999999999923e-02,1.511699999999999988e-01,3.042159999999999864e-01,1.511699999999999988e-01,1.001540000000000069e-01,1.256619999999999959e-01,1.256619999999999959e-01,1.511699999999999988e-01,-1.876999999999999979e-03,1.001540000000000069e-01,7.464600000000000402e-02,1.766770000000000007e-01,1.766770000000000007e-01,1.511699999999999988e-01,1.766770000000000007e-01,1.511699999999999988e-01,7.464600000000000402e-02,-1.876999999999999979e-03,2.276930000000000065e-01,2.787080000000000113e-01,1.511699999999999988e-01,7.464600000000000402e-02,1.001540000000000069e-01,2.021850000000000036e-01,1.256619999999999959e-01,7.464600000000000402e-02,1.511699999999999988e-01,2.276930000000000065e-01,1.001540000000000069e-01,1.511699999999999988e-01,1.766770000000000007e-01,-5.289200000000000151e-02,1.766770000000000007e-01,1.511699999999999988e-01,2.276930000000000065e-01,2.532010000000000094e-01,2.021850000000000036e-01,4.913900000000000212e-02,1.766770000000000007e-01,7.464600000000000402e-02,4.913900000000000212e-02,4.913900000000000212e-02,1.766770000000000007e-01,3.042159999999999864e-01,1.511699999999999988e-01,4.913900000000000212e-02,1.256619999999999959e-01,7.464600000000000402e-02,-1.876999999999999979e-03,1.511699999999999988e-01,1.766770000000000007e-01,2.021850000000000036e-01,2.021850000000000036e-01,1.511699999999999988e-01,1.256619999999999959e-01,2.363099999999999923e-02,1.256619999999999959e-01,1.001540000000000069e-01,1.511699999999999988e-01,1.256619999999999959e-01,1.766770000000000007e-01,2.276930000000000065e-01,4.913900000000000212e-02,2.276930000000000065e-01,1.766770000000000007e-01,2.276930000000000065e-01,1.766770000000000007e-01,1.511699999999999988e-01,2.363099999999999923e-02,1.256619999999999959e-01,2.021850000000000036e-01,1.766770000000000007e-01,1.256619999999999959e-01,1.766770000000000007e-01,7.464600000000000402e-02,7.464600000000000402e-02,1.256619999999999959e-01,1.001540000000000069e-01,1.511699999999999988e-01,3.042159999999999864e-01,1.766770000000000007e-01,1.256619999999999959e-01,3.552319999999999922e-01,2.276930000000000065e-01,1.001540000000000069e-01,4.913900000000000212e-02,2.276930000000000065e-01,2.021850000000000036e-01,1.001540000000000069e-01,7.464600000000000402e-02,1.256619999999999959e-01,1.511699999999999988e-01,2.276930000000000065e-01,7.464600000000000402e-02,7.464600000000000402e-02
