1.997059999999999946e-01,1.487030000000000018e-01,3.272140000000000049e-01,2.252079999999999915e-01,2.119499999999999856e-02,-8.081199999999999495e-02,-2.848249999999999948e-01,-4.307000000000000065e-03,2.507099999999999884e-01,1.232010000000000050e-01,3.782179999999999986e-01,4.547229999999999883e-01,3.272140000000000049e-01,1.997059999999999946e-01,7.219799999999999829e-02,-1.573170000000000124e-01,-4.307000000000000065e-03,9.769999999999999518e-02,1.742049999999999987e-01,2.252079999999999915e-01,1.487030000000000018e-01,2.252079999999999915e-01,1.742049999999999987e-01,1.232010000000000050e-01,1.232010000000000050e-01,-1.063130000000000047e-01,2.119499999999999856e-02,7.219799999999999829e-02,2.252079999999999915e-01,1.232010000000000050e-01,2.762109999999999843e-01,3.782179999999999986e-01,5.312280000000000335e-01,3.017130000000000090e-01,-1.318149999999999877e-01,-1.063130000000000047e-01,-1.063130000000000047e-01,-1.318149999999999877e-01,4.669600000000000140e-02,1.232010000000000050e-01,3.782179999999999986e-01,4.292210000000000192e-01,4.292210000000000192e-01,4.669600000000000140e-02,2.252079999999999915e-01,2.119499999999999856e-02,-1.063130000000000047e-01,-1.573170000000000124e-01,1.232010000000000050e-01,2.252079999999999915e-01,2.252079999999999915e-01,4.802239999999999842e-01,4.292210000000000192e-01,1.742049999999999987e-01,-4.307000000000000065e-03,-1.573170000000000124e-01,-1.063130000000000047e-01,1.997059999999999946e-01,4.037189999999999945e-01,1.742049999999999987e-01,2.119499999999999856e-02,2.252079999999999915e-01,1.742049999999999987e-01,2.507099999999999884e-01,1.997059999999999946e-01,-5.530999999999999805e-02,-3.868309999999999804e-01,2.119499999999999856e-02,3.782179999999999986e-01,3.017130000000000090e-01,3.782179999999999986e-01,3.527159999999999740e-01,2.119499999999999856e-02,9.769999999999999518e-02,7.219799999999999829e-02,2.119499999999999856e-02,-8.081199999999999495e-02,1.232010000000000050e-01,2.762109999999999843e-01,1.742049999999999987e-01,3.527159999999999740e-01,5.057260000000000089e-01,3.782179999999999986e-01,1.232010000000000050e-01,4.669600000000000140e-02,-3.358280000000000154e-01,-2.083200000000000052e-01,-1.063130000000000047e-01,1.742049999999999987e-01,2.762109999999999843e-01,4.292210000000000192e-01,1.997059999999999946e-01,4.037189999999999945e-01,7.219799999999999829e-02,1.232010000000000050e-01,-2.980800000000000116e-02,-1.828180000000000083e-01,2.119499999999999856e-02,1.232010000000000050e-01,4.547229999999999883e-01,2.507099999999999884e-01,5.312280000000000335e-01,3.272140000000000049e-01,3.782179999999999986e-01,-2.593230000000000257e-01,-4.123330000000000051e-01,-8.081199999999999495e-02,5.057260000000000089e-01,1.232010000000000050e-01,-1.318149999999999877e-01,-3.103259999999999907e-01,3.272140000000000049e-01,5.312280000000000335e-01,4.802239999999999842e-01,-8.081199999999999495e-02,1.742049999999999987e-01,7.219799999999999829e-02,8.117459999999999676e-01,1.232010000000000050e-01,-2.848249999999999948e-01,7.219799999999999829e-02,7.219799999999999829e-02,1.232010000000000050e-01,9.769999999999999518e-02,-1.573170000000000124e-01,-8.081199999999999495e-02,3.527159999999999740e-01,3.272140000000000049e-01,2.507099999999999884e-01,7.219799999999999829e-02,3.017130000000000090e-01,3.527159999999999740e-01,1.487030000000000018e-01,2.762109999999999843e-01,2.119499999999999856e-02,-2.980800000000000116e-02,-8.081199999999999495e-02,-2.980800000000000116e-02,1.997059999999999946e-01,3.017130000000000090e-01,1.997059999999999946e-01,1.487030000000000018e-01,2.252079999999999915e-01,7.219799999999999829e-02,-1.063130000000000047e-01,1.232010000000000050e-01,-1.318149999999999877e-01,-8.081199999999999495e-02,5.822310000000000541e-01,1.092262999999999984e+00,1.487030000000000018e-01,2.119499999999999856e-02,-2.980800000000000116e-02,-1.063130000000000047e-01,-5.530999999999999805e-02,4.669600000000000140e-02,2.252079999999999915e-01,4.547229999999999883e-01,-4.307000000000000065e-03,-4.307000000000000065e-03,7.219799999999999829e-02,2.507099999999999884e-01,3.272140000000000049e-01,9.769999999999999518e-02,1.232010000000000050e-01,1.742049999999999987e-01,-2.083200000000000052e-01,-2.980800000000000116e-02,8.117459999999999676e-01,5.057260000000000089e-01,5.057260000000000089e-01,2.119499999999999856e-02,-1.573170000000000124e-01,-1.828180000000000083e-01,-8.081199999999999495e-02,-1.063130000000000047e-01,-4.307000000000000065e-03,9.769999999999999518e-02,2.252079999999999915e-01,-4.307000000000000065e-03,6.587359999999999882e-01,1.997059999999999946e-01,5.057260000000000089e-01,5.567290000000000294e-01,6.842369999999999841e-01,6.587359999999999882e-01,-5.143389999999999906e-01,-9.478670000000000151e-01,-2.848249999999999948e-01,2.252079999999999915e-01,2.762109999999999843e-01,1.997059999999999946e-01,2.507099999999999884e-01,1.742049999999999987e-01,1.997059999999999946e-01,-5.530999999999999805e-02,-2.980800000000000116e-02,9.769999999999999518e-02,2.252079999999999915e-01,5.312280000000000335e-01,4.037189999999999945e-01,1.997059999999999946e-01,9.769999999999999518e-02,4.292210000000000192e-01,2.119499999999999856e-02,-4.307000000000000065e-03,-1.573170000000000124e-01,-5.530999999999999805e-02,2.119499999999999856e-02,1.232010000000000050e-01,1.742049999999999987e-01,3.272140000000000049e-01,3.782179999999999986e-01,9.769999999999999518e-02,2.252079999999999915e-01,-2.980800000000000116e-02,4.669600000000000140e-02,1.997059999999999946e-01,1.742049999999999987e-01,-4.307000000000000065e-03,1.997059999999999946e-01,1.742049999999999987e-01,2.762109999999999843e-01,7.219799999999999829e-02,2.252079999999999915e-01,2.252079999999999915e-01,-2.980800000000000116e-02,1.997059999999999946e-01,1.487030000000000018e-01,2.119499999999999856e-02,1.997059999999999946e-01,3.017130000000000090e-01,3.017130000000000090e-01,-2.848249999999999948e-01,7.219799999999999829e-02,3.782179999999999986e-01,9.769999999999999518e-02,-5.530999999999999805e-02,-1.063130000000000047e-01,5.057260000000000089e-01,-1.828180000000000083e-01,9.769999999999999518e-02,2.252079999999999915e-01,3.272140000000000049e-01,1.232010000000000050e-01,1.742049999999999987e-01,-2.980800000000000116e-02,1.997059999999999946e-01,2.507099999999999884e-01,3.272140000000000049e-01,1.232010000000000050e-01,1.487030000000000018e-01,1.487030000000000018e-01,1.487030000000000018e-01,7.219799999999999829e-02,-4.307000000000000065e-03,-5.530999999999999805e-02,-5.530999999999999805e-02,1.232010000000000050e-01,1.487030000000000018e-01,1.742049999999999987e-01,2.762109999999999843e-01,2.252079999999999915e-01,1.997059999999999946e-01,1.232010000000000050e-01,1.232010000000000050e-01,1.742049999999999987e-01,3.272140000000000049e-01,2.507099999999999884e-01,-1.063130000000000047e-01,-1.063130000000000047e-01,7.219799999999999829e-02,3.017130000000000090e-01,7.219799999999999829e-02,2.762109999999999843e-01,7.219799999999999829e-02,-2.083200000000000052e-01,-1.318149999999999877e-01,2.507099999999999884e-01,4.037189999999999945e-01,3.272140000000000049e-01,4.292210000000000192e-01,1.997059999999999946e-01,3.272140000000000049e-01,-8.081199999999999495e-02,-1.063130000000000047e-01,-8.081199999999999495e-02,7.219799999999999829e-02,1.742049999999999987e-01,1.742049999999999987e-01,2.507099999999999884e-01,5.057260000000000089e-01,6.077320000000000499e-01,1.742049999999999987e-01,1.232010000000000050e-01,-1.063130000000000047e-01,-2.848249999999999948e-01,-2.593230000000000257e-01,-5.530999999999999805e-02,9.769999999999999518e-02,1.742049999999999987e-01,2.507099999999999884e-01,7.097390000000000088e-01,8.372469999999999635e-01,2.252079999999999915e-01,-2.083200000000000052e-01,-2.593230000000000257e-01,-2.083200000000000052e-01,-1.063130000000000047e-01,1.232010000000000050e-01,9.769999999999999518e-02,3.272140000000000049e-01,4.037189999999999945e-01,6.077320000000000499e-01,1.487030000000000018e-01,7.219799999999999829e-02,2.119499999999999856e-02,-2.848249999999999948e-01,1.232010000000000050e-01,2.252079999999999915e-01,1.487030000000000018e-01,3.272140000000000049e-01,3.782179999999999986e-01,1.997059999999999946e-01,3.272140000000000049e-01,-2.338210000000000011e-01,-1.573170000000000124e-01,-1.573170000000000124e-01,1.997059999999999946e-01,9.769999999999999518e-02,3.527159999999999740e-01,3.272140000000000049e-01,3.272140000000000049e-01,3.782179999999999986e-01,9.769999999999999518e-02,7.219799999999999829e-02,4.669600000000000140e-02,-8.081199999999999495e-02,1.487030000000000018e-01,7.219799999999999829e-02,9.769999999999999518e-02,3.272140000000000049e-01,3.017130000000000090e-01,2.507099999999999884e-01,1.232010000000000050e-01,-1.573170000000000124e-01,-1.318149999999999877e-01,-4.307000000000000065e-03,3.017130000000000090e-01,3.782179999999999986e-01,2.762109999999999843e-01,1.487030000000000018e-01,7.219799999999999829e-02,2.507099999999999884e-01,4.547229999999999883e-01,-2.980800000000000116e-02,1.487030000000000018e-01,-5.530999999999999805e-02,-2.083200000000000052e-01,1.742049999999999987e-01,-8.081199999999999495e-02,3.272140000000000049e-01,5.312280000000000335e-01,6.332339999999999636e-01,1.997059999999999946e-01,-5.530999999999999805e-02,-2.593230000000000257e-01,-5.530999999999999805e-02,2.507099999999999884e-01,2.762109999999999843e-01,2.252079999999999915e-01,4.292210000000000192e-01,3.272140000000000049e-01,1.232010000000000050e-01,7.219799999999999829e-02,-1.318149999999999877e-01,-1.318149999999999877e-01,1.487030000000000018e-01,1.742049999999999987e-01,1.232010000000000050e-01,1.232010000000000050e-01,3.017130000000000090e-01,1.742049999999999987e-01,3.272140000000000049e-01,1.997059999999999946e-01,-4.307000000000000065e-03,4.669600000000000140e-02,7.219799999999999829e-02,-4.307000000000000065e-03,2.252079999999999915e-01,4.802239999999999842e-01,4.802239999999999842e-01,3.272140000000000049e-01,-2.848249999999999948e-01,-1.828180000000000083e-01,2.119499999999999856e-02,1.487030000000000018e-01,-2.593230000000000257e-01,1.997059999999999946e-01,1.742049999999999987e-01,1.997059999999999946e-01,3.527159999999999740e-01,3.272140000000000049e-01,3.017130000000000090e-01,2.507099999999999884e-01,1.232010000000000050e-01,1.487030000000000018e-01,-4.307000000000000065e-03,7.219799999999999829e-02,1.232010000000000050e-01,2.762109999999999843e-01,1.742049999999999987e-01,1.997059999999999946e-01,1.487030000000000018e-01,4.669600000000000140e-02,-2.980800000000000116e-02,-5.530999999999999805e-02,7.219799999999999829e-02,1.742049999999999987e-01,2.252079999999999915e-01,1.232010000000000050e-01,2.762109999999999843e-01,1.997059999999999946e-01,9.769999999999999518e-02,1.997059999999999946e-01,2.762109999999999843e-01,2.507099999999999884e-01,4.669600000000000140e-02,1.232010000000000050e-01,1.997059999999999946e-01,3.782179999999999986e-01,1.997059999999999946e-01,4.669600000000000140e-02,-1.318149999999999877e-01,-5.398410000000000153e-01,7.219799999999999829e-02,-2.980800000000000116e-02,6.842369999999999841e-01,3.782179999999999986e-01,-4.307000000000000065e-03,4.669600000000000140e-02,3.527159999999999740e-01,2.119499999999999856e-02,4.292210000000000192e-01,4.547229999999999883e-01,1.997059999999999946e-01,-8.081199999999999495e-02,4.669600000000000140e-02,-1.828180000000000083e-01,7.219799999999999829e-02,1.232010000000000050e-01,4.547229999999999883e-01,3.017130000000000090e-01,3.527159999999999740e-01,7.219799999999999829e-02,1.232010000000000050e-01,-8.081199999999999495e-02,-5.530999999999999805e-02,-8.081199999999999495e-02,2.119499999999999856e-02,1.742049999999999987e-01,2.252079999999999915e-01,3.782179999999999986e-01,1.997059999999999946e-01,4.669600000000000140e-02,2.119499999999999856e-02,7.219799999999999829e-02,1.997059999999999946e-01,3.527159999999999740e-01,7.219799999999999829e-02,1.997059999999999946e-01,3.782179999999999986e-01,4.669600000000000140e-02,1.232010000000000050e-01,1.742049999999999987e-01,-8.081199999999999495e-02,-1.318149999999999877e-01,-1.828180000000000083e-01,-1.063130000000000047e-01,1.487030000000000018e-01,1.997059999999999946e-01,2.762109999999999843e-01,2.252079999999999915e-01,6.077320000000000499e-01,1.092262999999999984e+00,2.252079999999999915e-01,-2.338210000000000011e-01,-1.318149999999999877e-01,-4.307000000000000065e-03,-1.318149999999999877e-01,2.119499999999999856e-02,1.232010000000000050e-01,1.742049999999999987e-01,3.017130000000000090e-01,1.232010000000000050e-01,4.292210000000000192e-01,4.802239999999999842e-01,5.822310000000000541e-01,-4.307000000000000065e-03,-2.593230000000000257e-01,-2.848249999999999948e-01,2.119499999999999856e-02,-8.081199999999999495e-02,5.312280000000000335e-01,2.119499999999999856e-02,7.219799999999999829e-02,1.742049999999999987e-01,3.017130000000000090e-01,1.742049999999999987e-01,3.527159999999999740e-01,9.769999999999999518e-02,2.507099999999999884e-01,3.017130000000000090e-01,1.232010000000000050e-01,9.769999999999999518e-02,-1.063130000000000047e-01,-1.063130000000000047e-01,2.119499999999999856e-02,1.232010000000000050e-01,2.119499999999999856e-02,3.272140000000000049e-01,2.762109999999999843e-01,5.057260000000000089e-01,2.252079999999999915e-01,4.669600000000000140e-02,-2.848249999999999948e-01,-1.318149999999999877e-01,2.119499999999999856e-02,4.547229999999999883e-01,5.822310000000000541e-01,7.097390000000000088e-01,1.742049999999999987e-01,-8.081199999999999495e-02,-4.307000000000000065e-03,-1.573170000000000124e-01,3.272140000000000049e-01,-1.063130000000000047e-01,-1.063130000000000047e-01,-1.573170000000000124e-01,-8.081199999999999495e-02,1.742049999999999987e-01,3.017130000000000090e-01,3.527159999999999740e-01,5.312280000000000335e-01,4.037189999999999945e-01,2.252079999999999915e-01,4.669600000000000140e-02,1.997059999999999946e-01,9.769999999999999518e-02,-1.318149999999999877e-01,-1.063130000000000047e-01,9.769999999999999518e-02,3.017130000000000090e-01,3.782179999999999986e-01,-4.307000000000000065e-03,-1.063130000000000047e-01,-4.307000000000000065e-03,2.119499999999999856e-02,2.252079999999999915e-01,1.997059999999999946e-01,6.842369999999999841e-01,2.762109999999999843e-01,1.742049999999999987e-01,-1.318149999999999877e-01,-3.358280000000000154e-01,-1.828180000000000083e-01,1.997059999999999946e-01,4.802239999999999842e-01,4.802239999999999842e-01,5.567290000000000294e-01,4.669600000000000140e-02,-1.063130000000000047e-01,-1.828180000000000083e-01,-4.307000000000000065e-03,-5.530999999999999805e-02,9.769999999999999518e-02,1.232010000000000050e-01,7.219799999999999829e-02,3.272140000000000049e-01,4.292210000000000192e-01,6.332339999999999636e-01,1.742049999999999987e-01,-4.307000000000000065e-03,-2.980800000000000116e-02,9.769999999999999518e-02,2.252079999999999915e-01,2.119499999999999856e-02,1.232010000000000050e-01,-5.530999999999999805e-02,-2.980800000000000116e-02,-1.063130000000000047e-01,4.669600000000000140e-02,7.352410000000000334e-01,4.037189999999999945e-01,2.507099999999999884e-01,-3.358280000000000154e-01,-2.848249999999999948e-01,2.119499999999999856e-02,4.037189999999999945e-01,1.487030000000000018e-01,3.017130000000000090e-01,1.487030000000000018e-01,4.292210000000000192e-01,2.507099999999999884e-01,3.272140000000000049e-01,4.669600000000000140e-02,-2.848249999999999948e-01,1.487030000000000018e-01,1.742049999999999987e-01,4.292210000000000192e-01,-1.318149999999999877e-01,2.119499999999999856e-02,9.769999999999999518e-02,-1.063130000000000047e-01,1.232010000000000050e-01,4.547229999999999883e-01,2.762109999999999843e-01,1.232010000000000050e-01,9.769999999999999518e-02,-8.081199999999999495e-02,-2.083200000000000052e-01,2.252079999999999915e-01,4.802239999999999842e-01,5.057260000000000089e-01,2.762109999999999843e-01,-2.848249999999999948e-01,7.219799999999999829e-02,-1.063130000000000047e-01,-1.063130000000000047e-01,4.669600000000000140e-02,1.232010000000000050e-01,1.742049999999999987e-01,4.802239999999999842e-01,3.527159999999999740e-01,1.997059999999999946e-01,-2.980800000000000116e-02,-1.063130000000000047e-01,-4.307000000000000065e-03,-4.307000000000000065e-03,9.769999999999999518e-02,7.219799999999999829e-02,3.272140000000000049e-01,3.782179999999999986e-01,4.802239999999999842e-01,9.769999999999999518e-02,7.219799999999999829e-02,-1.573170000000000124e-01,7.219799999999999829e-02,-5.530999999999999805e-02,1.742049999999999987e-01,-2.593230000000000257e-01,6.332339999999999636e-01,2.762109999999999843e-01,3.017130000000000090e-01,-5.530999999999999805e-02,1.487030000000000018e-01,4.669600000000000140e-02,-3.358280000000000154e-01,4.669600000000000140e-02,1.742049999999999987e-01,5.057260000000000089e-01,1.232010000000000050e-01,2.507099999999999884e-01,3.527159999999999740e-01,1.232010000000000050e-01,1.232010000000000050e-01,-1.318149999999999877e-01,2.252079999999999915e-01,4.669600000000000140e-02,-8.081199999999999495e-02,7.219799999999999829e-02,1.997059999999999946e-01,4.037189999999999945e-01,2.119499999999999856e-02,4.802239999999999842e-01,6.587359999999999882e-01,-1.828180000000000083e-01,-2.338210000000000011e-01,4.669600000000000140e-02,7.219799999999999829e-02,1.232010000000000050e-01,3.527159999999999740e-01,1.997059999999999946e-01,1.742049999999999987e-01,-8.081199999999999495e-02,-2.980800000000000116e-02,4.669600000000000140e-02,1.487030000000000018e-01,2.762109999999999843e-01,5.057260000000000089e-01,6.842369999999999841e-01,5.312280000000000335e-01,2.119499999999999856e-02,-2.083200000000000052e-01,-1.063130000000000047e-01,-3.868309999999999804e-01,-5.398410000000000153e-01,1.232010000000000050e-01,1.997059999999999946e-01,3.272140000000000049e-01,6.842369999999999841e-01,3.782179999999999986e-01,2.252079999999999915e-01,3.272140000000000049e-01,-1.063130000000000047e-01,2.119499999999999856e-02,7.219799999999999829e-02,2.762109999999999843e-01,-5.530999999999999805e-02,-1.318149999999999877e-01,6.077320000000000499e-01,7.097390000000000088e-01,3.272140000000000049e-01,-5.530999999999999805e-02,-3.613299999999999845e-01,-4.123330000000000051e-01,-3.868309999999999804e-01,4.669600000000000140e-02,1.232010000000000050e-01,3.527159999999999740e-01,5.567290000000000294e-01,4.547229999999999883e-01,3.272140000000000049e-01,3.017130000000000090e-01,1.232010000000000050e-01,-4.307000000000000065e-03,9.769999999999999518e-02,2.119499999999999856e-02,-1.063130000000000047e-01,3.017130000000000090e-01,4.669600000000000140e-02,2.252079999999999915e-01,5.822310000000000541e-01,1.997059999999999946e-01,1.232010000000000050e-01,-7.438540000000000152e-01,-5.908440000000000358e-01,3.272140000000000049e-01,7.862440000000000540e-01,-8.081199999999999495e-02,2.252079999999999915e-01,4.292210000000000192e-01,3.527159999999999740e-01,2.507099999999999884e-01,-5.530999999999999805e-02,-2.083200000000000052e-01,-1.318149999999999877e-01,-4.307000000000000065e-03,3.527159999999999740e-01,5.312280000000000335e-01,4.292210000000000192e-01,6.332339999999999636e-01,-1.318149999999999877e-01,-1.828180000000000083e-01,1.487030000000000018e-01,-2.338210000000000011e-01,1.997059999999999946e-01,2.762109999999999843e-01,1.742049999999999987e-01,-5.530999999999999805e-02,2.119499999999999856e-02,2.507099999999999884e-01,-8.081199999999999495e-02,5.312280000000000335e-01,3.782179999999999986e-01,4.292210000000000192e-01,-1.828180000000000083e-01,-1.828180000000000083e-01,4.669600000000000140e-02,-4.307000000000000065e-03,4.037189999999999945e-01,3.272140000000000049e-01,3.017130000000000090e-01,-2.848249999999999948e-01,2.119499999999999856e-02,2.252079999999999915e-01,7.219799999999999829e-02,6.077320000000000499e-01,2.507099999999999884e-01,-1.318149999999999877e-01,-3.868309999999999804e-01,-2.083200000000000052e-01,4.292210000000000192e-01,7.607420000000000293e-01,6.842369999999999841e-01,-4.307000000000000065e-03,-6.163459999999999495e-01,-8.081199999999999495e-02,4.802239999999999842e-01,1.232010000000000050e-01,7.219799999999999829e-02,3.527159999999999740e-01,3.017130000000000090e-01,-3.103259999999999907e-01,-5.530999999999999805e-02,7.862440000000000540e-01,4.292210000000000192e-01,1.232010000000000050e-01,2.762109999999999843e-01,-4.307000000000000065e-03,-2.083200000000000052e-01,-2.980800000000000116e-02,2.507099999999999884e-01,-2.980800000000000116e-02,-1.063130000000000047e-01,9.769999999999999518e-02,7.219799999999999829e-02,2.119499999999999856e-02,1.232010000000000050e-01,4.037189999999999945e-01,8.372469999999999635e-01,4.292210000000000192e-01,2.252079999999999915e-01,7.219799999999999829e-02,-4.307000000000000065e-03,-2.848249999999999948e-01,6.332339999999999636e-01,-1.318149999999999877e-01,-4.307000000000000065e-03,7.219799999999999829e-02,-4.307000000000000065e-03,-2.980800000000000116e-02,9.769999999999999518e-02,-1.063130000000000047e-01,2.252079999999999915e-01,2.507099999999999884e-01,1.487030000000000018e-01,1.232010000000000050e-01,3.527159999999999740e-01,3.272140000000000049e-01,3.272140000000000049e-01,6.587359999999999882e-01,4.037189999999999945e-01,-4.307000000000000065e-03,7.219799999999999829e-02,-3.613299999999999845e-01,-3.613299999999999845e-01,4.669600000000000140e-02,2.119499999999999856e-02,1.487030000000000018e-01,6.842369999999999841e-01,8.882499999999999840e-01,9.769999999999999518e-02,-1.828180000000000083e-01,-4.123330000000000051e-01,-2.848249999999999948e-01,-8.081199999999999495e-02,5.822310000000000541e-01,6.587359999999999882e-01,-5.530999999999999805e-02,-2.593230000000000257e-01,3.782179999999999986e-01,5.567290000000000294e-01,1.232010000000000050e-01,-4.307000000000000065e-03,7.219799999999999829e-02,2.119499999999999856e-02,9.769999999999999518e-02,2.762109999999999843e-01,3.782179999999999986e-01,2.119499999999999856e-02,1.742049999999999987e-01,2.507099999999999884e-01,7.219799999999999829e-02,2.119499999999999856e-02,-1.063130000000000047e-01,-1.063130000000000047e-01,1.232010000000000050e-01,3.272140000000000049e-01,3.272140000000000049e-01,9.769999999999999518e-02,3.782179999999999986e-01,2.252079999999999915e-01,4.669600000000000140e-02,4.669600000000000140e-02,1.997059999999999946e-01,9.769999999999999518e-02,-1.063130000000000047e-01,2.507099999999999884e-01,4.802239999999999842e-01,2.119499999999999856e-02,2.119499999999999856e-02,2.762109999999999843e-01,7.352410000000000334e-01,-2.848249999999999948e-01,-4.888379999999999947e-01,-1.828180000000000083e-01,2.119499999999999856e-02,1.232010000000000050e-01,2.762109999999999843e-01,2.762109999999999843e-01,4.802239999999999842e-01,3.782179999999999986e-01,3.017130000000000090e-01,3.527159999999999740e-01,3.272140000000000049e-01,2.507099999999999884e-01,2.119499999999999856e-02,-2.083200000000000052e-01,-1.573170000000000124e-01,1.487030000000000018e-01,1.232010000000000050e-01,6.842369999999999841e-01,3.017130000000000090e-01,4.669600000000000140e-02,-4.307000000000000065e-03,-1.063130000000000047e-01,-3.103259999999999907e-01,2.252079999999999915e-01,1.487030000000000018e-01,2.762109999999999843e-01,2.762109999999999843e-01,4.292210000000000192e-01,9.769999999999999518e-02,-1.063130000000000047e-01,-1.828180000000000083e-01,-2.083200000000000052e-01,1.742049999999999987e-01,3.527159999999999740e-01,3.527159999999999740e-01,8.882499999999999840e-01,4.547229999999999883e-01,1.487030000000000018e-01,-8.081199999999999495e-02,-1.063130000000000047e-01,-5.530999999999999805e-02,-4.307000000000000065e-03,7.219799999999999829e-02,4.669600000000000140e-02,5.057260000000000089e-01,-1.318149999999999877e-01,1.232010000000000050e-01,3.782179999999999986e-01,1.997059999999999946e-01,4.669600000000000140e-02,-2.083200000000000052e-01,1.997059999999999946e-01,7.219799999999999829e-02,-4.307000000000000065e-03,9.769999999999999518e-02,1.997059999999999946e-01,4.802239999999999842e-01,3.272140000000000049e-01,3.017130000000000090e-01,1.997059999999999946e-01,7.219799999999999829e-02,9.769999999999999518e-02,1.997059999999999946e-01,1.997059999999999946e-01,9.769999999999999518e-02,2.119499999999999856e-02,-8.081199999999999495e-02,2.762109999999999843e-01,1.487030000000000018e-01,4.037189999999999945e-01,7.219799999999999829e-02,-2.338210000000000011e-01,-2.338210000000000011e-01,4.669600000000000140e-02,1.742049999999999987e-01,4.037189999999999945e-01,-8.081199999999999495e-02,8.882499999999999840e-01,-2.980800000000000116e-02,2.119499999999999856e-02,-2.083200000000000052e-01,-1.318149999999999877e-01,9.769999999999999518e-02,8.117459999999999676e-01,1.487030000000000018e-01,1.232010000000000050e-01,4.669600000000000140e-02,3.272140000000000049e-01,1.742049999999999987e-01,2.252079999999999915e-01,-1.318149999999999877e-01,-8.081199999999999495e-02,-2.980800000000000116e-02,1.232010000000000050e-01,1.232010000000000050e-01,1.487030000000000018e-01,3.527159999999999740e-01,6.587359999999999882e-01,4.802239999999999842e-01,-8.081199999999999495e-02,7.219799999999999829e-02,2.762109999999999843e-01,1.487030000000000018e-01,-3.613299999999999845e-01,-4.888379999999999947e-01,-1.063130000000000047e-01,2.119499999999999856e-02,4.292210000000000192e-01,2.119499999999999856e-02,1.997059999999999946e-01,4.547229999999999883e-01,4.292210000000000192e-01,1.997059999999999946e-01,2.507099999999999884e-01,8.117459999999999676e-01,5.822310000000000541e-01,-1.573170000000000124e-01,-4.633360000000000256e-01,-5.398410000000000153e-01,-3.868309999999999804e-01,-6.673489999999999700e-01,-8.081199999999999495e-02,4.037189999999999945e-01,1.194269999999999943e+00,9.647550000000000292e-01,7.097390000000000088e-01,-1.318149999999999877e-01,-1.063130000000000047e-01,-3.358280000000000154e-01,3.527159999999999740e-01,4.669600000000000140e-02,9.769999999999999518e-02,-2.980800000000000116e-02,9.769999999999999518e-02,9.769999999999999518e-02,1.232010000000000050e-01,5.822310000000000541e-01,1.997059999999999946e-01,-1.063130000000000047e-01,-1.573170000000000124e-01,-1.318149999999999877e-01,2.762109999999999843e-01,9.769999999999999518e-02,2.119499999999999856e-02,1.742049999999999987e-01,2.252079999999999915e-01,3.017130000000000090e-01,3.272140000000000049e-01,3.527159999999999740e-01,2.762109999999999843e-01,-8.081199999999999495e-02,-2.593230000000000257e-01,-1.828180000000000083e-01,4.292210000000000192e-01,3.782179999999999986e-01,6.587359999999999882e-01,2.119499999999999856e-02,-2.848249999999999948e-01,-2.083200000000000052e-01,2.762109999999999843e-01,5.057260000000000089e-01,7.219799999999999829e-02,-8.081199999999999495e-02,-8.081199999999999495e-02,1.232010000000000050e-01,2.252079999999999915e-01,-4.307000000000000065e-03,2.507099999999999884e-01,2.252079999999999915e-01,3.527159999999999740e-01,-5.530999999999999805e-02,-4.307000000000000065e-03,3.272140000000000049e-01,-2.980800000000000116e-02,3.527159999999999740e-01,3.272140000000000049e-01,4.669600000000000140e-02,1.487030000000000018e-01,3.272140000000000049e-01,-8.081199999999999495e-02,-4.123330000000000051e-01,7.219799999999999829e-02,4.292210000000000192e-01,4.669600000000000140e-02,-2.980800000000000116e-02,3.017130000000000090e-01,3.782179999999999986e-01,4.292210000000000192e-01,2.252079999999999915e-01,2.252079999999999915e-01,-1.318149999999999877e-01,-2.593230000000000257e-01,-4.307000000000000065e-03,-8.081199999999999495e-02,1.487030000000000018e-01,3.017130000000000090e-01,6.587359999999999882e-01,-2.980800000000000116e-02,9.769999999999999518e-02,-4.307000000000000065e-03,-2.980800000000000116e-02,-1.573170000000000124e-01,1.041260000000000074e+00,7.352410000000000334e-01,2.507099999999999884e-01,-8.081199999999999495e-02,-1.063130000000000047e-01,-1.063130000000000047e-01,-1.573170000000000124e-01,-3.103259999999999907e-01,-1.318149999999999877e-01,3.272140000000000049e-01,4.802239999999999842e-01,3.527159999999999740e-01,2.762109999999999843e-01,3.272140000000000049e-01,2.252079999999999915e-01,1.232010000000000050e-01,2.119499999999999856e-02,-4.307000000000000065e-03,-2.980800000000000116e-02,-5.530999999999999805e-02,2.252079999999999915e-01,9.769999999999999518e-02,9.647550000000000292e-01,5.312280000000000335e-01,2.119499999999999856e-02,-1.063130000000000047e-01,-1.828180000000000083e-01,-1.063130000000000047e-01,1.232010000000000050e-01,1.742049999999999987e-01,-8.081199999999999495e-02,3.017130000000000090e-01,1.487030000000000018e-01,2.762109999999999843e-01,-2.980800000000000116e-02,4.292210000000000192e-01,3.017130000000000090e-01,2.507099999999999884e-01,-4.307000000000000065e-03,7.219799999999999829e-02,4.669600000000000140e-02,-8.081199999999999495e-02,7.219799999999999829e-02,1.742049999999999987e-01,1.232010000000000050e-01,3.272140000000000049e-01,4.037189999999999945e-01,2.507099999999999884e-01,1.742049999999999987e-01,9.769999999999999518e-02,3.272140000000000049e-01,-8.081199999999999495e-02,4.292210000000000192e-01,-3.868309999999999804e-01,2.119499999999999856e-02,-4.307000000000000065e-03,2.507099999999999884e-01,2.119499999999999856e-02,7.219799999999999829e-02,4.037189999999999945e-01,1.487030000000000018e-01,7.219799999999999829e-02,9.769999999999999518e-02,1.232010000000000050e-01,1.742049999999999987e-01,1.997059999999999946e-01,6.077320000000000499e-01,4.669600000000000140e-02,3.017130000000000090e-01,-1.828180000000000083e-01,1.232010000000000050e-01,1.742049999999999987e-01,1.742049999999999987e-01,4.669600000000000140e-02,1.232010000000000050e-01,-2.980800000000000116e-02,1.487030000000000018e-01,2.507099999999999884e-01,-2.980800000000000116e-02,9.769999999999999518e-02,1.232010000000000050e-01,2.252079999999999915e-01,2.507099999999999884e-01,3.272140000000000049e-01,3.272140000000000049e-01,1.742049999999999987e-01,9.769999999999999518e-02,2.119499999999999856e-02,-1.318149999999999877e-01,-2.848249999999999948e-01,1.487030000000000018e-01,3.272140000000000049e-01,7.097390000000000088e-01,2.762109999999999843e-01,4.547229999999999883e-01,4.037189999999999945e-01,-1.318149999999999877e-01,-2.848249999999999948e-01,-1.573170000000000124e-01,2.119499999999999856e-02,-3.103259999999999907e-01,9.769999999999999518e-02,1.742049999999999987e-01,3.527159999999999740e-01,3.527159999999999740e-01,1.742049999999999987e-01,2.762109999999999843e-01,2.507099999999999884e-01,2.119499999999999856e-02,4.669600000000000140e-02,7.352410000000000334e-01,2.762109999999999843e-01,4.669600000000000140e-02,-8.081199999999999495e-02,1.232010000000000050e-01,4.669600000000000140e-02,9.769999999999999518e-02,-2.980800000000000116e-02,4.669600000000000140e-02,-1.828180000000000083e-01,-4.307000000000000065e-03,1.742049999999999987e-01,1.487030000000000018e-01,5.312280000000000335e-01,6.842369999999999841e-01,2.507099999999999884e-01,2.252079999999999915e-01,1.997059999999999946e-01,-1.318149999999999877e-01,-4.633360000000000256e-01,-2.593230000000000257e-01,-1.063130000000000047e-01,2.119499999999999856e-02,3.527159999999999740e-01,1.015759000000000079e+00,5.057260000000000089e-01,-2.980800000000000116e-02,-1.318149999999999877e-01,-1.063130000000000047e-01,3.017130000000000090e-01,-1.318149999999999877e-01,2.507099999999999884e-01,5.057260000000000089e-01,7.219799999999999829e-02,4.292210000000000192e-01,-8.081199999999999495e-02,-8.081199999999999495e-02,-1.318149999999999877e-01,-5.530999999999999805e-02,-1.063130000000000047e-01,6.842369999999999841e-01,4.802239999999999842e-01,1.232010000000000050e-01,-1.573170000000000124e-01,2.507099999999999884e-01,7.219799999999999829e-02,2.762109999999999843e-01,1.487030000000000018e-01,1.742049999999999987e-01,-1.063130000000000047e-01,2.119499999999999856e-02,2.252079999999999915e-01,1.997059999999999946e-01,1.232010000000000050e-01,1.742049999999999987e-01,2.762109999999999843e-01,1.232010000000000050e-01,4.669600000000000140e-02,1.997059999999999946e-01,4.292210000000000192e-01,-8.081199999999999495e-02,4.669600000000000140e-02,1.232010000000000050e-01,1.487030000000000018e-01,1.487030000000000018e-01,2.252079999999999915e-01,1.232010000000000050e-01,-1.063130000000000047e-01,2.507099999999999884e-01,3.782179999999999986e-01,2.252079999999999915e-01,2.119499999999999856e-02,2.119499999999999856e-02,2.762109999999999843e-01,2.119499999999999856e-02,2.507099999999999884e-01,2.762109999999999843e-01,4.547229999999999883e-01,-1.318149999999999877e-01,-8.081199999999999495e-02,7.219799999999999829e-02,4.669600000000000140e-02,-5.530999999999999805e-02,9.769999999999999518e-02,3.272140000000000049e-01,2.762109999999999843e-01,1.742049999999999987e-01,4.037189999999999945e-01,2.507099999999999884e-01,3.527159999999999740e-01,3.017130000000000090e-01,-4.307000000000000065e-03,-5.530999999999999805e-02,-1.573170000000000124e-01,2.762109999999999843e-01,2.252079999999999915e-01,2.507099999999999884e-01,-5.530999999999999805e-02,7.219799999999999829e-02,-5.530999999999999805e-02,4.037189999999999945e-01,1.997059999999999946e-01,1.742049999999999987e-01,1.487030000000000018e-01,4.669600000000000140e-02,1.742049999999999987e-01,1.742049999999999987e-01,7.219799999999999829e-02,-1.063130000000000047e-01,-8.081199999999999495e-02,1.232010000000000050e-01,4.802239999999999842e-01,2.119499999999999856e-02,2.762109999999999843e-01,3.272140000000000049e-01,3.272140000000000049e-01,9.769999999999999518e-02,-5.530999999999999805e-02,2.762109999999999843e-01,9.769999999999999518e-02,2.252079999999999915e-01,9.769999999999999518e-02,7.219799999999999829e-02,2.252079999999999915e-01,3.017130000000000090e-01,1.997059999999999946e-01,1.487030000000000018e-01,-2.980800000000000116e-02,2.252079999999999915e-01,-5.530999999999999805e-02,-1.318149999999999877e-01,4.669600000000000140e-02,7.219799999999999829e-02,1.487030000000000018e-01,3.272140000000000049e-01,5.057260000000000089e-01,6.842369999999999841e-01,2.252079999999999915e-01,4.669600000000000140e-02,-1.063130000000000047e-01,-1.828180000000000083e-01,-2.980800000000000116e-02,-1.318149999999999877e-01,1.232010000000000050e-01,5.312280000000000335e-01,1.997059999999999946e-01,1.997059999999999946e-01,4.292210000000000192e-01,2.119499999999999856e-02,-3.613299999999999845e-01,1.742049999999999987e-01,1.487030000000000018e-01,2.507099999999999884e-01,2.507099999999999884e-01,4.037189999999999945e-01,2.507099999999999884e-01,-4.307000000000000065e-03,1.742049999999999987e-01,-1.828180000000000083e-01,-1.828180000000000083e-01,1.232010000000000050e-01,2.507099999999999884e-01,4.547229999999999883e-01,1.742049999999999987e-01,1.232010000000000050e-01,8.117459999999999676e-01,3.527159999999999740e-01,-2.980800000000000116e-02,-3.358280000000000154e-01,-2.593230000000000257e-01,1.232010000000000050e-01,7.219799999999999829e-02,2.762109999999999843e-01,1.487030000000000018e-01,4.669600000000000140e-02,2.762109999999999843e-01,1.487030000000000018e-01,-4.307000000000000065e-03,5.057260000000000089e-01,2.762109999999999843e-01,-2.980800000000000116e-02,1.997059999999999946e-01,2.119499999999999856e-02,2.252079999999999915e-01,1.742049999999999987e-01,1.487030000000000018e-01,2.762109999999999843e-01,-1.063130000000000047e-01,-2.980800000000000116e-02,-3.358280000000000154e-01,1.232010000000000050e-01,5.057260000000000089e-01,1.742049999999999987e-01,3.272140000000000049e-01,1.997059999999999946e-01,1.487030000000000018e-01,1.487030000000000018e-01,9.769999999999999518e-02,-1.573170000000000124e-01,-2.980800000000000116e-02,4.669600000000000140e-02,2.252079999999999915e-01,2.507099999999999884e-01,1.742049999999999987e-01,3.272140000000000049e-01,4.292210000000000192e-01,1.232010000000000050e-01,4.669600000000000140e-02,-1.573170000000000124e-01,-5.530999999999999805e-02,4.669600000000000140e-02,6.587359999999999882e-01,6.842369999999999841e-01,2.762109999999999843e-01,-1.828180000000000083e-01,-2.848249999999999948e-01,-2.083200000000000052e-01,-2.848249999999999948e-01,-3.103259999999999907e-01,1.487030000000000018e-01,5.312280000000000335e-01,3.782179999999999986e-01,4.547229999999999883e-01,3.527159999999999740e-01,2.507099999999999884e-01,9.769999999999999518e-02,9.769999999999999518e-02,2.762109999999999843e-01,1.487030000000000018e-01,-8.081199999999999495e-02,-8.081199999999999495e-02,-5.530999999999999805e-02,4.669600000000000140e-02,3.017130000000000090e-01,2.507099999999999884e-01,6.077320000000000499e-01,4.292210000000000192e-01,1.997059999999999946e-01,-1.828180000000000083e-01,-3.613299999999999845e-01,-3.358280000000000154e-01,-2.083200000000000052e-01,9.769999999999999518e-02,4.292210000000000192e-01,5.822310000000000541e-01,5.312280000000000335e-01,2.762109999999999843e-01,4.547229999999999883e-01,-1.063130000000000047e-01,-4.123330000000000051e-01,-1.573170000000000124e-01,1.742049999999999987e-01,1.997059999999999946e-01,2.762109999999999843e-01,1.232010000000000050e-01,1.742049999999999987e-01,2.762109999999999843e-01,1.742049999999999987e-01,-8.081199999999999495e-02,7.219799999999999829e-02,1.487030000000000018e-01,1.487030000000000018e-01,1.232010000000000050e-01,2.252079999999999915e-01,2.252079999999999915e-01,3.272140000000000049e-01,3.272140000000000049e-01,4.669600000000000140e-02,-2.338210000000000011e-01,-1.318149999999999877e-01,-1.573170000000000124e-01,2.762109999999999843e-01,3.527159999999999740e-01,6.332339999999999636e-01,2.762109999999999843e-01,1.232010000000000050e-01,-8.081199999999999495e-02,2.119499999999999856e-02,-2.980800000000000116e-02,-2.980800000000000116e-02,4.669600000000000140e-02,9.769999999999999518e-02,1.232010000000000050e-01,2.507099999999999884e-01,3.272140000000000049e-01,7.607420000000000293e-01,7.607420000000000293e-01,2.119499999999999856e-02,-2.848249999999999948e-01,-8.081199999999999495e-02,-2.083200000000000052e-01,-3.103259999999999907e-01,-2.338210000000000011e-01,2.119499999999999856e-02,1.487030000000000018e-01,1.487030000000000018e-01,2.762109999999999843e-01,1.997059999999999946e-01,1.997059999999999946e-01,1.487030000000000018e-01,2.252079999999999915e-01,4.037189999999999945e-01,1.997059999999999946e-01,2.762109999999999843e-01,6.842369999999999841e-01,2.507099999999999884e-01,-4.307000000000000065e-03,-2.848249999999999948e-01,-3.868309999999999804e-01,-2.593230000000000257e-01,-5.530999999999999805e-02,1.487030000000000018e-01,3.527159999999999740e-01,3.017130000000000090e-01,3.782179999999999986e-01,3.017130000000000090e-01,3.272140000000000049e-01,1.997059999999999946e-01,-2.083200000000000052e-01,-2.848249999999999948e-01,3.272140000000000049e-01,1.232010000000000050e-01,2.119499999999999856e-02,3.782179999999999986e-01,4.037189999999999945e-01,4.037189999999999945e-01,-4.307000000000000065e-03,-3.358280000000000154e-01,-1.573170000000000124e-01,-1.063130000000000047e-01,7.219799999999999829e-02,3.782179999999999986e-01,4.292210000000000192e-01,5.822310000000000541e-01,4.547229999999999883e-01,3.272140000000000049e-01,3.017130000000000090e-01,-8.081199999999999495e-02,-2.338210000000000011e-01,-3.613299999999999845e-01,-1.573170000000000124e-01,2.252079999999999915e-01,9.769999999999999518e-02,3.782179999999999986e-01,3.272140000000000049e-01,5.057260000000000089e-01,2.252079999999999915e-01,2.119499999999999856e-02,-1.318149999999999877e-01,-5.530999999999999805e-02,4.292210000000000192e-01,4.802239999999999842e-01,-4.307000000000000065e-03,-1.063130000000000047e-01,5.567290000000000294e-01,1.232010000000000050e-01,6.332339999999999636e-01,2.119499999999999856e-02,-1.828180000000000083e-01,-4.888379999999999947e-01,-2.848249999999999948e-01,-2.980800000000000116e-02,9.769999999999999518e-02,1.487030000000000018e-01,6.077320000000000499e-01,7.862440000000000540e-01,3.527159999999999740e-01,2.507099999999999884e-01,1.487030000000000018e-01,-5.530999999999999805e-02,-5.530999999999999805e-02,9.769999999999999518e-02,2.252079999999999915e-01,1.997059999999999946e-01,2.762109999999999843e-01,1.232010000000000050e-01,1.232010000000000050e-01,-4.307000000000000065e-03,4.669600000000000140e-02,-5.530999999999999805e-02,2.119499999999999856e-02,1.742049999999999987e-01,-4.307000000000000065e-03,1.232010000000000050e-01,2.507099999999999884e-01,7.219799999999999829e-02,4.802239999999999842e-01,6.332339999999999636e-01,3.017130000000000090e-01,9.769999999999999518e-02,1.487030000000000018e-01,-2.980800000000000116e-02,-3.103259999999999907e-01,-1.318149999999999877e-01,1.997059999999999946e-01,-2.980800000000000116e-02,-5.530999999999999805e-02,-1.318149999999999877e-01,7.097390000000000088e-01,3.272140000000000049e-01,4.802239999999999842e-01,1.232010000000000050e-01,2.252079999999999915e-01,7.219799999999999829e-02,2.252079999999999915e-01,2.119499999999999856e-02,2.762109999999999843e-01,1.742049999999999987e-01,1.742049999999999987e-01,-2.593230000000000257e-01,-2.083200000000000052e-01,-1.828180000000000083e-01,1.487030000000000018e-01,1.232010000000000050e-01,3.527159999999999740e-01,2.762109999999999843e-01,4.292210000000000192e-01,3.017130000000000090e-01,3.272140000000000049e-01,9.769999999999999518e-02,-2.980800000000000116e-02,-1.063130000000000047e-01,1.742049999999999987e-01,3.272140000000000049e-01,3.017130000000000090e-01,2.119499999999999856e-02,-1.318149999999999877e-01,4.037189999999999945e-01,-2.980800000000000116e-02,-2.980800000000000116e-02,-8.081199999999999495e-02,2.119499999999999856e-02,2.119499999999999856e-02,4.292210000000000192e-01,9.137520000000000087e-01,2.762109999999999843e-01,9.769999999999999518e-02,-3.868309999999999804e-01,-1.573170000000000124e-01,-4.123330000000000051e-01,-4.307000000000000065e-03,1.742049999999999987e-01,2.252079999999999915e-01,5.312280000000000335e-01,7.352410000000000334e-01,3.017130000000000090e-01,-4.307000000000000065e-03,1.742049999999999987e-01,2.507099999999999884e-01,7.219799999999999829e-02,-4.307000000000000065e-03,-1.063130000000000047e-01,-1.063130000000000047e-01,-8.081199999999999495e-02,2.507099999999999884e-01,1.742049999999999987e-01,3.017130000000000090e-01,1.232010000000000050e-01,1.232010000000000050e-01,-2.980800000000000116e-02,2.762109999999999843e-01,3.527159999999999740e-01,1.487030000000000018e-01,1.487030000000000018e-01,4.292210000000000192e-01,1.232010000000000050e-01,2.119499999999999856e-02,3.017130000000000090e-01,7.219799999999999829e-02,-1.318149999999999877e-01,-2.338210000000000011e-01,-1.573170000000000124e-01,1.232010000000000050e-01,2.762109999999999843e-01,7.352410000000000334e-01,5.312280000000000335e-01,2.119499999999999856e-02,-1.573170000000000124e-01,-4.307000000000000065e-03,-8.081199999999999495e-02,2.119499999999999856e-02,-2.980800000000000116e-02,1.487030000000000018e-01,2.762109999999999843e-01,6.077320000000000499e-01,4.802239999999999842e-01,2.252079999999999915e-01,1.487030000000000018e-01,-4.307000000000000065e-03,-8.081199999999999495e-02,9.769999999999999518e-02,-2.980800000000000116e-02,1.742049999999999987e-01,7.219799999999999829e-02,1.742049999999999987e-01,1.997059999999999946e-01,1.997059999999999946e-01,3.017130000000000090e-01,2.119499999999999856e-02,1.487030000000000018e-01,7.219799999999999829e-02,9.769999999999999518e-02,4.037189999999999945e-01,5.567290000000000294e-01,-5.530999999999999805e-02,1.232010000000000050e-01,-1.828180000000000083e-01,-1.063130000000000047e-01,-8.081199999999999495e-02,2.119499999999999856e-02,2.119499999999999856e-02,7.219799999999999829e-02,2.252079999999999915e-01,4.547229999999999883e-01,4.802239999999999842e-01,5.567290000000000294e-01,3.017130000000000090e-01,4.669600000000000140e-02,-1.318149999999999877e-01,-5.530999999999999805e-02,-8.081199999999999495e-02,-2.980800000000000116e-02,1.742049999999999987e-01,1.997059999999999946e-01,2.762109999999999843e-01,5.312280000000000335e-01,5.057260000000000089e-01,3.017130000000000090e-01,-2.083200000000000052e-01,-2.593230000000000257e-01,-4.123330000000000051e-01,1.487030000000000018e-01,3.782179999999999986e-01,8.372469999999999635e-01,4.292210000000000192e-01,-5.530999999999999805e-02,-1.573170000000000124e-01,-3.358280000000000154e-01,-3.103259999999999907e-01,-2.083200000000000052e-01,2.507099999999999884e-01,4.547229999999999883e-01,4.802239999999999842e-01,4.292210000000000192e-01,3.782179999999999986e-01,3.527159999999999740e-01,1.232010000000000050e-01,1.742049999999999987e-01,2.119499999999999856e-02,-2.338210000000000011e-01,-4.307000000000000065e-03,2.119499999999999856e-02,-4.307000000000000065e-03,3.017130000000000090e-01,2.252079999999999915e-01,3.272140000000000049e-01,3.272140000000000049e-01,2.119499999999999856e-02,-1.063130000000000047e-01,-5.530999999999999805e-02,-4.307000000000000065e-03,2.507099999999999884e-01,9.769999999999999518e-02,2.252079999999999915e-01,3.527159999999999740e-01,2.252079999999999915e-01,1.742049999999999987e-01,4.669600000000000140e-02,-8.081199999999999495e-02,3.017130000000000090e-01,7.219799999999999829e-02,7.219799999999999829e-02,3.782179999999999986e-01,1.487030000000000018e-01,4.037189999999999945e-01,6.077320000000000499e-01,1.232010000000000050e-01,-2.980800000000000116e-02,-4.888379999999999947e-01,-4.888379999999999947e-01,7.219799999999999829e-02,4.547229999999999883e-01,7.219799999999999829e-02,2.252079999999999915e-01,2.252079999999999915e-01,4.292210000000000192e-01,1.232010000000000050e-01,3.017130000000000090e-01,4.292210000000000192e-01,-2.083200000000000052e-01,7.219799999999999829e-02,2.119499999999999856e-02,2.762109999999999843e-01,4.669600000000000140e-02,3.782179999999999986e-01,3.272140000000000049e-01,1.742049999999999987e-01,2.119499999999999856e-02,-1.573170000000000124e-01,-3.868309999999999804e-01,-5.530999999999999805e-02,6.332339999999999636e-01,2.119499999999999856e-02,-2.980800000000000116e-02,2.762109999999999843e-01,2.762109999999999843e-01,8.882499999999999840e-01,4.802239999999999842e-01,7.219799999999999829e-02,-3.868309999999999804e-01,-2.848249999999999948e-01,-2.083200000000000052e-01,1.487030000000000018e-01,3.782179999999999986e-01,3.272140000000000049e-01,2.507099999999999884e-01,9.769999999999999518e-02,1.232010000000000050e-01,1.487030000000000018e-01,3.272140000000000049e-01,1.232010000000000050e-01,2.119499999999999856e-02,2.119499999999999856e-02,1.742049999999999987e-01,2.507099999999999884e-01,2.119499999999999856e-02,1.997059999999999946e-01,3.272140000000000049e-01,7.219799999999999829e-02,-1.828180000000000083e-01,1.487030000000000018e-01,4.802239999999999842e-01,1.232010000000000050e-01,1.232010000000000050e-01,1.487030000000000018e-01,-1.063130000000000047e-01,-8.081199999999999495e-02,7.219799999999999829e-02,1.232010000000000050e-01,-2.980800000000000116e-02,1.487030000000000018e-01,2.762109999999999843e-01,3.017130000000000090e-01,4.037189999999999945e-01,2.762109999999999843e-01,1.997059999999999946e-01,1.997059999999999946e-01,9.769999999999999518e-02,-5.530999999999999805e-02,-5.530999999999999805e-02,2.252079999999999915e-01,3.017130000000000090e-01,4.669600000000000140e-02,7.219799999999999829e-02,1.997059999999999946e-01,4.669600000000000140e-02,2.252079999999999915e-01,2.119499999999999856e-02,7.219799999999999829e-02,3.017130000000000090e-01,1.232010000000000050e-01,7.219799999999999829e-02,2.119499999999999856e-02,2.252079999999999915e-01,2.507099999999999884e-01,2.252079999999999915e-01,4.037189999999999945e-01,2.762109999999999843e-01,7.219799999999999829e-02,-2.338210000000000011e-01,7.219799999999999829e-02,-8.081199999999999495e-02,2.762109999999999843e-01,1.742049999999999987e-01,1.742049999999999987e-01,1.997059999999999946e-01,-5.530999999999999805e-02,1.232010000000000050e-01,2.252079999999999915e-01,4.669600000000000140e-02,1.232010000000000050e-01,1.742049999999999987e-01,2.119499999999999856e-02,2.762109999999999843e-01,4.547229999999999883e-01,2.762109999999999843e-01,1.997059999999999946e-01,-8.081199999999999495e-02,2.119499999999999856e-02,9.769999999999999518e-02,-4.307000000000000065e-03,7.219799999999999829e-02,4.669600000000000140e-02,1.232010000000000050e-01,2.507099999999999884e-01,2.762109999999999843e-01,1.997059999999999946e-01,2.762109999999999843e-01,-2.980800000000000116e-02,-1.063130000000000047e-01,2.119499999999999856e-02,1.742049999999999987e-01,1.487030000000000018e-01,3.272140000000000049e-01,1.742049999999999987e-01,3.527159999999999740e-01,1.487030000000000018e-01,1.232010000000000050e-01,-5.530999999999999805e-02,-2.980800000000000116e-02,2.507099999999999884e-01,3.782179999999999986e-01,-5.530999999999999805e-02,-4.307000000000000065e-03,2.762109999999999843e-01,-2.980800000000000116e-02,7.219799999999999829e-02,2.119499999999999856e-02,-2.980800000000000116e-02,4.669600000000000140e-02,1.742049999999999987e-01,6.587359999999999882e-01,3.272140000000000049e-01,3.782179999999999986e-01,2.507099999999999884e-01,2.119499999999999856e-02,-4.307000000000000065e-03,2.119499999999999856e-02,-1.063130000000000047e-01,1.487030000000000018e-01,2.252079999999999915e-01,1.487030000000000018e-01,1.742049999999999987e-01,2.119499999999999856e-02,4.669600000000000140e-02,2.762109999999999843e-01,1.997059999999999946e-01,-2.980800000000000116e-02,1.487030000000000018e-01,1.487030000000000018e-01,-4.307000000000000065e-03,2.119499999999999856e-02,-2.980800000000000116e-02,3.017130000000000090e-01,7.097390000000000088e-01,3.272140000000000049e-01,5.312280000000000335e-01,-4.307000000000000065e-03,-3.358280000000000154e-01,-2.338210000000000011e-01,-1.063130000000000047e-01,-4.307000000000000065e-03,1.997059999999999946e-01,1.997059999999999946e-01,2.762109999999999843e-01,5.057260000000000089e-01,9.769999999999999518e-02,2.119499999999999856e-02,9.769999999999999518e-02,2.252079999999999915e-01,4.037189999999999945e-01,1.742049999999999987e-01,-5.530999999999999805e-02,-4.307000000000000065e-03,2.507099999999999884e-01,1.997059999999999946e-01,4.669600000000000140e-02,2.507099999999999884e-01,2.119499999999999856e-02,-8.081199999999999495e-02,9.769999999999999518e-02,1.487030000000000018e-01,2.119499999999999856e-02,3.272140000000000049e-01,5.822310000000000541e-01,2.762109999999999843e-01,1.232010000000000050e-01,7.219799999999999829e-02,-5.530999999999999805e-02,-8.081199999999999495e-02,-1.063130000000000047e-01,1.232010000000000050e-01,2.762109999999999843e-01,2.252079999999999915e-01,4.802239999999999842e-01,2.252079999999999915e-01,2.119499999999999856e-02,1.487030000000000018e-01,2.119499999999999856e-02,-8.081199999999999495e-02,2.119499999999999856e-02,2.507099999999999884e-01,4.292210000000000192e-01,2.252079999999999915e-01,2.252079999999999915e-01,4.292210000000000192e-01,2.252079999999999915e-01,-8.081199999999999495e-02,-1.573170000000000124e-01,-3.868309999999999804e-01,-1.828180000000000083e-01,2.507099999999999884e-01,2.762109999999999843e-01,3.527159999999999740e-01,3.017130000000000090e-01,3.527159999999999740e-01,5.822310000000000541e-01,3.017130000000000090e-01,-3.358280000000000154e-01,-3.868309999999999804e-01,1.232010000000000050e-01,1.487030000000000018e-01,1.997059999999999946e-01,4.037189999999999945e-01,4.292210000000000192e-01,2.507099999999999884e-01,4.669600000000000140e-02,-1.318149999999999877e-01,-1.828180000000000083e-01,-2.980800000000000116e-02,-1.318149999999999877e-01,2.507099999999999884e-01,3.017130000000000090e-01,5.312280000000000335e-01,3.017130000000000090e-01,3.017130000000000090e-01,7.219799999999999829e-02,-1.828180000000000083e-01,-2.593230000000000257e-01,-1.063130000000000047e-01,-4.307000000000000065e-03,1.742049999999999987e-01,3.017130000000000090e-01,3.272140000000000049e-01,3.272140000000000049e-01,3.272140000000000049e-01,1.742049999999999987e-01,5.057260000000000089e-01,2.252079999999999915e-01,-8.081199999999999495e-02,-2.593230000000000257e-01,-2.980800000000000116e-02,2.252079999999999915e-01,2.762109999999999843e-01,3.017130000000000090e-01,7.219799999999999829e-02,4.292210000000000192e-01,-1.318149999999999877e-01,-8.081199999999999495e-02,-1.318149999999999877e-01,-5.530999999999999805e-02,1.232010000000000050e-01,2.762109999999999843e-01,3.527159999999999740e-01,4.292210000000000192e-01,5.312280000000000335e-01,4.037189999999999945e-01,-4.307000000000000065e-03,-2.980800000000000116e-02,2.119499999999999856e-02,-8.081199999999999495e-02,1.232010000000000050e-01,9.769999999999999518e-02,-4.307000000000000065e-03,1.487030000000000018e-01,9.769999999999999518e-02,3.017130000000000090e-01,2.762109999999999843e-01,1.487030000000000018e-01,-2.083200000000000052e-01,2.119499999999999856e-02,1.487030000000000018e-01,5.057260000000000089e-01,1.232010000000000050e-01,1.997059999999999946e-01,3.017130000000000090e-01,1.997059999999999946e-01,9.769999999999999518e-02,2.119499999999999856e-02,-1.828180000000000083e-01,4.669600000000000140e-02,1.232010000000000050e-01,2.252079999999999915e-01,5.822310000000000541e-01,5.567290000000000294e-01,-4.307000000000000065e-03,-4.307000000000000065e-03,9.769999999999999518e-02,7.219799999999999829e-02,-1.573170000000000124e-01,-1.063130000000000047e-01,-8.081199999999999495e-02,2.119499999999999856e-02,3.782179999999999986e-01,5.822310000000000541e-01,2.507099999999999884e-01,1.232010000000000050e-01,1.742049999999999987e-01,9.769999999999999518e-02,-8.081199999999999495e-02,-2.980800000000000116e-02,9.769999999999999518e-02,-4.307000000000000065e-03,2.507099999999999884e-01,4.292210000000000192e-01,3.017130000000000090e-01,2.252079999999999915e-01,2.252079999999999915e-01,2.119499999999999856e-02,-5.530999999999999805e-02,9.769999999999999518e-02,-8.081199999999999495e-02,4.669600000000000140e-02,4.547229999999999883e-01,3.527159999999999740e-01,1.742049999999999987e-01,-5.530999999999999805e-02,4.669600000000000140e-02,2.762109999999999843e-01,-1.318149999999999877e-01,3.782179999999999986e-01,7.219799999999999829e-02,-5.530999999999999805e-02,4.669600000000000140e-02,3.782179999999999986e-01,3.272140000000000049e-01,7.219799999999999829e-02,1.232010000000000050e-01,4.669600000000000140e-02,1.232010000000000050e-01,2.762109999999999843e-01,4.037189999999999945e-01,2.507099999999999884e-01,1.232010000000000050e-01,2.762109999999999843e-01,-4.307000000000000065e-03,4.669600000000000140e-02,-5.530999999999999805e-02,-2.980800000000000116e-02,-5.530999999999999805e-02,1.742049999999999987e-01,2.252079999999999915e-01,7.219799999999999829e-02,5.057260000000000089e-01,4.802239999999999842e-01,3.272140000000000049e-01,1.742049999999999987e-01,1.232010000000000050e-01,-2.593230000000000257e-01,-1.318149999999999877e-01,-8.081199999999999495e-02,-8.081199999999999495e-02,2.119499999999999856e-02,5.567290000000000294e-01,6.332339999999999636e-01,1.997059999999999946e-01,2.252079999999999915e-01,1.232010000000000050e-01,-1.828180000000000083e-01,-3.613299999999999845e-01,-1.318149999999999877e-01,1.742049999999999987e-01,1.997059999999999946e-01,1.487030000000000018e-01,4.037189999999999945e-01,8.882499999999999840e-01,4.292210000000000192e-01,2.507099999999999884e-01,-2.083200000000000052e-01,-1.318149999999999877e-01,-8.081199999999999495e-02,-4.307000000000000065e-03,1.487030000000000018e-01,2.119499999999999856e-02,1.997059999999999946e-01,3.017130000000000090e-01,3.527159999999999740e-01,2.252079999999999915e-01,9.769999999999999518e-02,-2.980800000000000116e-02,9.769999999999999518e-02,1.487030000000000018e-01,4.037189999999999945e-01,2.762109999999999843e-01,9.769999999999999518e-02,3.017130000000000090e-01,2.252079999999999915e-01,9.769999999999999518e-02,-1.828180000000000083e-01,-3.103259999999999907e-01,-2.980800000000000116e-02,1.742049999999999987e-01,1.742049999999999987e-01,1.997059999999999946e-01,3.017130000000000090e-01,7.097390000000000088e-01,9.392540000000000333e-01,1.487030000000000018e-01,-1.318149999999999877e-01,-4.888379999999999947e-01,-4.123330000000000051e-01,-1.828180000000000083e-01,2.507099999999999884e-01,4.547229999999999883e-01,3.272140000000000049e-01,2.507099999999999884e-01,3.272140000000000049e-01,1.232010000000000050e-01,-5.530999999999999805e-02,-3.358280000000000154e-01,2.119499999999999856e-02,1.487030000000000018e-01,7.097390000000000088e-01,9.769999999999999518e-02,2.507099999999999884e-01,3.527159999999999740e-01,3.782179999999999986e-01,-1.318149999999999877e-01,-2.338210000000000011e-01,-3.103259999999999907e-01,-4.307000000000000065e-03,2.762109999999999843e-01,2.252079999999999915e-01,2.252079999999999915e-01,4.037189999999999945e-01,2.507099999999999884e-01,2.252079999999999915e-01,1.232010000000000050e-01,-4.307000000000000065e-03,4.669600000000000140e-02,2.762109999999999843e-01,3.527159999999999740e-01,2.119499999999999856e-02,-1.318149999999999877e-01,1.742049999999999987e-01,9.769999999999999518e-02,2.762109999999999843e-01,4.292210000000000192e-01,-4.307000000000000065e-03,-1.828180000000000083e-01,-2.083200000000000052e-01,2.507099999999999884e-01,2.507099999999999884e-01,3.017130000000000090e-01,4.292210000000000192e-01,5.567290000000000294e-01,1.997059999999999946e-01,-5.530999999999999805e-02,-1.828180000000000083e-01,-2.083200000000000052e-01,4.669600000000000140e-02,2.507099999999999884e-01,1.232010000000000050e-01,1.997059999999999946e-01,2.762109999999999843e-01,3.272140000000000049e-01,1.997059999999999946e-01,2.762109999999999843e-01,1.742049999999999987e-01,1.487030000000000018e-01,1.232010000000000050e-01,-2.338210000000000011e-01,-2.083200000000000052e-01,-1.063130000000000047e-01,2.507099999999999884e-01,2.252079999999999915e-01,3.782179999999999986e-01,3.272140000000000049e-01,1.232010000000000050e-01,1.232010000000000050e-01,9.769999999999999518e-02,-5.530999999999999805e-02,-1.318149999999999877e-01,4.292210000000000192e-01,5.312280000000000335e-01,3.527159999999999740e-01,-1.063130000000000047e-01,1.997059999999999946e-01,-2.980800000000000116e-02,-2.338210000000000011e-01,-1.828180000000000083e-01,9.769999999999999518e-02,1.997059999999999946e-01,1.997059999999999946e-01,3.527159999999999740e-01,3.017130000000000090e-01,2.507099999999999884e-01,2.762109999999999843e-01,2.119499999999999856e-02,-1.318149999999999877e-01,9.769999999999999518e-02,1.742049999999999987e-01,1.997059999999999946e-01,2.507099999999999884e-01,6.332339999999999636e-01,2.252079999999999915e-01,1.487030000000000018e-01,-2.083200000000000052e-01,-2.338210000000000011e-01,-5.530999999999999805e-02,3.272140000000000049e-01,5.057260000000000089e-01,3.272140000000000049e-01,-1.573170000000000124e-01,-4.307000000000000065e-03,-1.318149999999999877e-01,3.782179999999999986e-01,1.997059999999999946e-01,1.742049999999999987e-01,1.487030000000000018e-01,1.742049999999999987e-01,2.507099999999999884e-01,1.742049999999999987e-01,1.997059999999999946e-01,2.252079999999999915e-01,4.292210000000000192e-01,1.742049999999999987e-01,4.669600000000000140e-02,-4.307000000000000065e-03,-1.318149999999999877e-01,-4.307000000000000065e-03,-2.980800000000000116e-02,9.769999999999999518e-02,2.762109999999999843e-01,1.997059999999999946e-01,2.762109999999999843e-01,7.219799999999999829e-02,1.997059999999999946e-01,-2.980800000000000116e-02,1.232010000000000050e-01,-4.307000000000000065e-03,4.037189999999999945e-01,3.017130000000000090e-01,3.272140000000000049e-01,2.252079999999999915e-01,1.997059999999999946e-01,-4.307000000000000065e-03,-1.573170000000000124e-01,4.669600000000000140e-02,-8.081199999999999495e-02,-4.307000000000000065e-03,1.997059999999999946e-01,4.547229999999999883e-01,5.567290000000000294e-01,4.547229999999999883e-01,-2.980800000000000116e-02,2.507099999999999884e-01,-1.318149999999999877e-01,-3.868309999999999804e-01,-1.828180000000000083e-01,-4.307000000000000065e-03,4.037189999999999945e-01,3.782179999999999986e-01,3.017130000000000090e-01,4.802239999999999842e-01,3.527159999999999740e-01,2.119499999999999856e-02,-2.848249999999999948e-01,-1.063130000000000047e-01,-2.980800000000000116e-02,7.219799999999999829e-02,9.769999999999999518e-02,2.762109999999999843e-01,3.527159999999999740e-01,5.312280000000000335e-01,4.037189999999999945e-01,1.742049999999999987e-01,-1.318149999999999877e-01,-5.530999999999999805e-02,1.232010000000000050e-01,3.527159999999999740e-01,7.219799999999999829e-02,-2.980800000000000116e-02,7.219799999999999829e-02,1.997059999999999946e-01,3.272140000000000049e-01,3.527159999999999740e-01,-5.530999999999999805e-02,-2.593230000000000257e-01,-2.083200000000000052e-01,-2.083200000000000052e-01,2.507099999999999884e-01,2.252079999999999915e-01,6.332339999999999636e-01,5.312280000000000335e-01,6.077320000000000499e-01,7.219799999999999829e-02,-1.318149999999999877e-01,-1.828180000000000083e-01,-1.063130000000000047e-01,4.292210000000000192e-01,4.802239999999999842e-01,2.252079999999999915e-01,-2.848249999999999948e-01,-8.081199999999999495e-02,2.252079999999999915e-01,9.769999999999999518e-02,-2.980800000000000116e-02,1.232010000000000050e-01,-2.980800000000000116e-02,2.507099999999999884e-01,5.312280000000000335e-01,3.017130000000000090e-01,3.272140000000000049e-01,3.272140000000000049e-01,5.567290000000000294e-01,1.742049999999999987e-01,-4.307000000000000065e-03,-2.593230000000000257e-01,-2.848249999999999948e-01,4.669600000000000140e-02,-2.980800000000000116e-02,7.219799999999999829e-02,1.997059999999999946e-01,2.507099999999999884e-01,5.312280000000000335e-01,4.547229999999999883e-01,9.769999999999999518e-02,3.017130000000000090e-01,-2.848249999999999948e-01,-1.828180000000000083e-01,-8.081199999999999495e-02,2.119499999999999856e-02,2.762109999999999843e-01,2.762109999999999843e-01,4.292210000000000192e-01,3.017130000000000090e-01,3.272140000000000049e-01,1.487030000000000018e-01,2.119499999999999856e-02,-2.338210000000000011e-01,-4.307000000000000065e-03,3.272140000000000049e-01,3.527159999999999740e-01,3.272140000000000049e-01,4.669600000000000140e-02,2.119499999999999856e-02,7.219799999999999829e-02,-8.081199999999999495e-02,-5.530999999999999805e-02,-5.530999999999999805e-02,2.507099999999999884e-01,2.252079999999999915e-01,1.742049999999999987e-01,4.037189999999999945e-01,3.527159999999999740e-01,3.272140000000000049e-01,1.487030000000000018e-01,2.119499999999999856e-02,-2.848249999999999948e-01,1.232010000000000050e-01,7.219799999999999829e-02,3.272140000000000049e-01,3.017130000000000090e-01,3.527159999999999740e-01,7.219799999999999829e-02,-4.307000000000000065e-03,1.742049999999999987e-01,9.769999999999999518e-02,-2.338210000000000011e-01,-8.081199999999999495e-02,3.272140000000000049e-01,3.527159999999999740e-01,4.037189999999999945e-01,2.507099999999999884e-01,3.017130000000000090e-01,4.669600000000000140e-02,-2.980800000000000116e-02,-4.123330000000000051e-01,-2.593230000000000257e-01,2.252079999999999915e-01,6.332339999999999636e-01,3.782179999999999986e-01,1.742049999999999987e-01,3.017130000000000090e-01,9.769999999999999518e-02,1.232010000000000050e-01,4.669600000000000140e-02,7.219799999999999829e-02,-1.828180000000000083e-01,1.232010000000000050e-01,4.669600000000000140e-02,2.252079999999999915e-01,9.769999999999999518e-02,3.527159999999999740e-01,3.782179999999999986e-01,3.272140000000000049e-01,7.219799999999999829e-02,4.669600000000000140e-02,9.769999999999999518e-02,-4.307000000000000065e-03,-1.573170000000000124e-01,1.232010000000000050e-01,4.669600000000000140e-02,1.232010000000000050e-01,3.527159999999999740e-01,3.017130000000000090e-01,1.742049999999999987e-01,-1.573170000000000124e-01,-4.307000000000000065e-03,1.487030000000000018e-01,1.232010000000000050e-01,2.762109999999999843e-01,1.487030000000000018e-01,2.252079999999999915e-01,1.487030000000000018e-01,2.252079999999999915e-01,4.669600000000000140e-02,3.272140000000000049e-01,-2.083200000000000052e-01,1.232010000000000050e-01,2.119499999999999856e-02,2.762109999999999843e-01,3.272140000000000049e-01,5.312280000000000335e-01,2.507099999999999884e-01,1.997059999999999946e-01,4.669600000000000140e-02,-4.307000000000000065e-03,-2.593230000000000257e-01,-1.573170000000000124e-01,-5.530999999999999805e-02,7.219799999999999829e-02,3.782179999999999986e-01,5.312280000000000335e-01,4.037189999999999945e-01,5.822310000000000541e-01,1.997059999999999946e-01,-1.828180000000000083e-01,-5.908440000000000358e-01,-3.868309999999999804e-01,1.742049999999999987e-01,7.097390000000000088e-01,7.219799999999999829e-02,1.232010000000000050e-01,9.769999999999999518e-02,-2.980800000000000116e-02,3.017130000000000090e-01,4.669600000000000140e-02,1.232010000000000050e-01,-4.307000000000000065e-03,1.487030000000000018e-01,1.232010000000000050e-01,4.292210000000000192e-01,5.567290000000000294e-01,3.272140000000000049e-01,1.232010000000000050e-01,4.669600000000000140e-02,-1.828180000000000083e-01,-1.063130000000000047e-01,-4.307000000000000065e-03,1.232010000000000050e-01,1.487030000000000018e-01,3.017130000000000090e-01,1.997059999999999946e-01,4.292210000000000192e-01,2.762109999999999843e-01,2.762109999999999843e-01,-2.980800000000000116e-02,-1.828180000000000083e-01,9.769999999999999518e-02,1.487030000000000018e-01,2.762109999999999843e-01,9.769999999999999518e-02,3.272140000000000049e-01,4.802239999999999842e-01,1.742049999999999987e-01,-3.103259999999999907e-01,-2.338210000000000011e-01,-3.358280000000000154e-01,2.119499999999999856e-02,3.782179999999999986e-01,4.292210000000000192e-01,2.762109999999999843e-01,4.292210000000000192e-01,3.272140000000000049e-01,9.769999999999999518e-02,-5.530999999999999805e-02,2.252079999999999915e-01,9.769999999999999518e-02,-8.081199999999999495e-02,-1.063130000000000047e-01,1.232010000000000050e-01,9.769999999999999518e-02,4.547229999999999883e-01,4.547229999999999883e-01,3.017130000000000090e-01,-2.980800000000000116e-02,-5.530999999999999805e-02,7.219799999999999829e-02,4.292210000000000192e-01,2.119499999999999856e-02,-4.307000000000000065e-03,-2.980800000000000116e-02,4.669600000000000140e-02,7.219799999999999829e-02,1.742049999999999987e-01,9.769999999999999518e-02,2.762109999999999843e-01,-1.318149999999999877e-01,1.232010000000000050e-01,6.077320000000000499e-01,3.017130000000000090e-01,2.252079999999999915e-01,2.762109999999999843e-01,1.997059999999999946e-01,7.219799999999999829e-02,2.119499999999999856e-02,2.119499999999999856e-02,-1.573170000000000124e-01,-5.530999999999999805e-02,4.669600000000000140e-02,2.252079999999999915e-01,1.742049999999999987e-01,4.037189999999999945e-01,4.292210000000000192e-01,1.232010000000000050e-01,1.232010000000000050e-01,1.232010000000000050e-01,7.219799999999999829e-02,-1.573170000000000124e-01,-4.307000000000000065e-03,1.232010000000000050e-01,1.742049999999999987e-01,4.292210000000000192e-01,2.762109999999999843e-01,1.997059999999999946e-01,-2.980800000000000116e-02,-8.081199999999999495e-02,1.742049999999999987e-01,2.119499999999999856e-02,2.119499999999999856e-02,4.669600000000000140e-02,1.232010000000000050e-01,3.017130000000000090e-01,2.507099999999999884e-01,5.312280000000000335e-01,6.842369999999999841e-01,4.802239999999999842e-01,-2.848249999999999948e-01,-4.378349999999999742e-01,-4.888379999999999947e-01,1.232010000000000050e-01,2.252079999999999915e-01,2.252079999999999915e-01,2.762109999999999843e-01,3.017130000000000090e-01,1.742049999999999987e-01,1.487030000000000018e-01,1.232010000000000050e-01,1.742049999999999987e-01,2.507099999999999884e-01,2.762109999999999843e-01,2.762109999999999843e-01,3.017130000000000090e-01,3.017130000000000090e-01,1.232010000000000050e-01,9.769999999999999518e-02,-1.318149999999999877e-01,-4.123330000000000051e-01,-8.081199999999999495e-02,4.547229999999999883e-01,1.232010000000000050e-01,-4.307000000000000065e-03,2.252079999999999915e-01,4.037189999999999945e-01,4.292210000000000192e-01,4.547229999999999883e-01,-2.338210000000000011e-01,-3.613299999999999845e-01,7.219799999999999829e-02,-3.103259999999999907e-01,2.119499999999999856e-02,3.017130000000000090e-01,7.862440000000000540e-01,1.742049999999999987e-01,3.272140000000000049e-01,1.997059999999999946e-01,-5.530999999999999805e-02,-8.081199999999999495e-02,4.669600000000000140e-02,4.292210000000000192e-01,3.527159999999999740e-01,1.742049999999999987e-01,1.487030000000000018e-01,2.119499999999999856e-02,1.487030000000000018e-01,1.487030000000000018e-01,4.669600000000000140e-02,-2.338210000000000011e-01,1.232010000000000050e-01,1.997059999999999946e-01,1.487030000000000018e-01,1.997059999999999946e-01,3.782179999999999986e-01,2.762109999999999843e-01,2.119499999999999856e-02,-1.318149999999999877e-01,-3.613299999999999845e-01,-2.083200000000000052e-01,1.487030000000000018e-01,4.547229999999999883e-01,6.842369999999999841e-01,5.822310000000000541e-01,3.782179999999999986e-01,-1.573170000000000124e-01,-2.083200000000000052e-01,1.487030000000000018e-01,2.507099999999999884e-01,-2.593230000000000257e-01,1.742049999999999987e-01,1.487030000000000018e-01,5.312280000000000335e-01,9.769999999999999518e-02,4.669600000000000140e-02,2.119499999999999856e-02,5.057260000000000089e-01,-4.307000000000000065e-03,2.119499999999999856e-02,-2.980800000000000116e-02,-1.063130000000000047e-01,5.822310000000000541e-01,-5.530999999999999805e-02,4.669600000000000140e-02,2.252079999999999915e-01,3.017130000000000090e-01,3.527159999999999740e-01,1.232010000000000050e-01,-1.063130000000000047e-01,-1.573170000000000124e-01,-2.980800000000000116e-02,9.769999999999999518e-02,3.017130000000000090e-01,4.547229999999999883e-01,5.822310000000000541e-01,1.232010000000000050e-01,1.232010000000000050e-01,-5.530999999999999805e-02,-2.848249999999999948e-01,1.232010000000000050e-01,4.802239999999999842e-01,3.272140000000000049e-01,-2.848249999999999948e-01,-8.081199999999999495e-02,7.219799999999999829e-02,3.017130000000000090e-01,1.742049999999999987e-01,3.272140000000000049e-01,3.527159999999999740e-01,-8.081199999999999495e-02,4.669600000000000140e-02,3.782179999999999986e-01,9.769999999999999518e-02,1.487030000000000018e-01,9.769999999999999518e-02,3.272140000000000049e-01,2.119499999999999856e-02,1.487030000000000018e-01,7.219799999999999829e-02,4.669600000000000140e-02,1.742049999999999987e-01,2.252079999999999915e-01,4.292210000000000192e-01,2.507099999999999884e-01,2.252079999999999915e-01,1.232010000000000050e-01,-2.980800000000000116e-02,-8.081199999999999495e-02,-3.103259999999999907e-01,-4.307000000000000065e-03,-1.063130000000000047e-01,7.219799999999999829e-02,5.057260000000000089e-01,1.117764999999999898e+00,6.332339999999999636e-01,1.997059999999999946e-01,-2.980800000000000116e-02,-2.848249999999999948e-01,-3.868309999999999804e-01,-3.358280000000000154e-01,7.219799999999999829e-02,2.252079999999999915e-01,9.769999999999999518e-02,2.762109999999999843e-01,1.997059999999999946e-01,5.312280000000000335e-01,6.842369999999999841e-01,6.332339999999999636e-01,7.219799999999999829e-02,-3.103259999999999907e-01,-2.338210000000000011e-01,-1.828180000000000083e-01,-1.063130000000000047e-01,2.252079999999999915e-01,1.997059999999999946e-01,4.037189999999999945e-01,4.292210000000000192e-01,3.272140000000000049e-01,7.219799999999999829e-02,-1.573170000000000124e-01,-4.307000000000000065e-03,-4.307000000000000065e-03,2.119499999999999856e-02,1.997059999999999946e-01,3.782179999999999986e-01,3.782179999999999986e-01,2.252079999999999915e-01,7.219799999999999829e-02,4.669600000000000140e-02,-4.307000000000000065e-03,1.487030000000000018e-01,-8.081199999999999495e-02,-4.307000000000000065e-03,1.997059999999999946e-01,4.037189999999999945e-01,8.372469999999999635e-01,-1.063130000000000047e-01,9.769999999999999518e-02,7.219799999999999829e-02,-4.307000000000000065e-03,-1.063130000000000047e-01,-8.081199999999999495e-02,-1.063130000000000047e-01,1.232010000000000050e-01,3.017130000000000090e-01,3.527159999999999740e-01,7.607420000000000293e-01,1.997059999999999946e-01,9.769999999999999518e-02,2.119499999999999856e-02,-2.980800000000000116e-02,1.487030000000000018e-01,4.669600000000000140e-02,1.997059999999999946e-01,1.997059999999999946e-01,2.252079999999999915e-01,1.742049999999999987e-01,1.232010000000000050e-01,4.669600000000000140e-02,-2.980800000000000116e-02,2.119499999999999856e-02,9.769999999999999518e-02,3.272140000000000049e-01,1.742049999999999987e-01,2.252079999999999915e-01,9.769999999999999518e-02,-8.081199999999999495e-02,3.272140000000000049e-01,4.037189999999999945e-01,1.232010000000000050e-01,-4.307000000000000065e-03,9.769999999999999518e-02,2.252079999999999915e-01,2.762109999999999843e-01,3.272140000000000049e-01,1.742049999999999987e-01,4.669600000000000140e-02,2.252079999999999915e-01,-5.530999999999999805e-02,7.219799999999999829e-02,1.487030000000000018e-01,1.997059999999999946e-01,-8.081199999999999495e-02,4.669600000000000140e-02,2.762109999999999843e-01,4.292210000000000192e-01,3.272140000000000049e-01,9.769999999999999518e-02,9.769999999999999518e-02,-2.083200000000000052e-01,-1.063130000000000047e-01,-2.980800000000000116e-02,1.232010000000000050e-01,4.037189999999999945e-01,3.017130000000000090e-01,3.527159999999999740e-01,2.762109999999999843e-01,4.669600000000000140e-02,7.219799999999999829e-02,7.219799999999999829e-02,-4.307000000000000065e-03,9.769999999999999518e-02,-1.063130000000000047e-01,2.762109999999999843e-01,1.997059999999999946e-01,3.527159999999999740e-01,3.527159999999999740e-01,1.232010000000000050e-01,-2.980800000000000116e-02,-1.573170000000000124e-01,-5.530999999999999805e-02,9.769999999999999518e-02,3.272140000000000049e-01,4.669600000000000140e-02,6.842369999999999841e-01,6.332339999999999636e-01,4.292210000000000192e-01,9.769999999999999518e-02,-5.908440000000000358e-01,-3.613299999999999845e-01,9.769999999999999518e-02,1.232010000000000050e-01,1.487030000000000018e-01,1.232010000000000050e-01,3.017130000000000090e-01,3.782179999999999986e-01,-4.307000000000000065e-03,-4.307000000000000065e-03,9.769999999999999518e-02,2.762109999999999843e-01,2.119499999999999856e-02,3.017130000000000090e-01,9.769999999999999518e-02,1.997059999999999946e-01,1.742049999999999987e-01,5.057260000000000089e-01,2.762109999999999843e-01,1.997059999999999946e-01,-1.828180000000000083e-01,-8.081199999999999495e-02,-8.081199999999999495e-02,2.762109999999999843e-01,1.232010000000000050e-01,2.252079999999999915e-01,9.769999999999999518e-02,3.272140000000000049e-01,2.252079999999999915e-01,1.232010000000000050e-01,-1.063130000000000047e-01,7.219799999999999829e-02,3.272140000000000049e-01,5.312280000000000335e-01,-2.848249999999999948e-01,-4.307000000000000065e-03,2.252079999999999915e-01,1.487030000000000018e-01,1.742049999999999987e-01,9.769999999999999518e-02,9.769999999999999518e-02,3.272140000000000049e-01,4.292210000000000192e-01,5.057260000000000089e-01,-8.081199999999999495e-02,-2.980800000000000116e-02,-8.081199999999999495e-02,1.742049999999999987e-01,1.997059999999999946e-01,1.742049999999999987e-01,-2.980800000000000116e-02,-2.593230000000000257e-01,2.119499999999999856e-02,2.252079999999999915e-01,5.567290000000000294e-01,8.882499999999999840e-01,5.312280000000000335e-01,3.272140000000000049e-01,-2.980800000000000116e-02,-2.338210000000000011e-01,-5.908440000000000358e-01,-3.103259999999999907e-01,-1.318149999999999877e-01,1.997059999999999946e-01,2.507099999999999884e-01,4.547229999999999883e-01,3.272140000000000049e-01,4.292210000000000192e-01,3.017130000000000090e-01,1.742049999999999987e-01,9.769999999999999518e-02,-2.980800000000000116e-02,2.252079999999999915e-01,2.252079999999999915e-01,1.487030000000000018e-01,2.507099999999999884e-01,9.769999999999999518e-02,1.487030000000000018e-01,1.232010000000000050e-01,4.669600000000000140e-02,9.769999999999999518e-02,2.119499999999999856e-02,2.119499999999999856e-02,1.487030000000000018e-01,9.769999999999999518e-02,3.527159999999999740e-01,1.232010000000000050e-01,2.252079999999999915e-01,6.077320000000000499e-01,3.527159999999999740e-01,7.219799999999999829e-02,9.769999999999999518e-02,-2.083200000000000052e-01,-2.338210000000000011e-01,-2.083200000000000052e-01,-2.980800000000000116e-02,9.769999999999999518e-02,3.272140000000000049e-01,3.017130000000000090e-01,4.037189999999999945e-01,1.742049999999999987e-01,2.762109999999999843e-01,2.762109999999999843e-01,3.272140000000000049e-01,3.272140000000000049e-01
