2.021850000000000036e-01,1.511699999999999988e-01,1.256619999999999959e-01,1.766770000000000007e-01,1.001540000000000069e-01,1.001540000000000069e-01,1.256619999999999959e-01,1.001540000000000069e-01,2.276930000000000065e-01,2.532010000000000094e-01,3.297240000000000171e-01,2.787080000000000113e-01,1.001540000000000069e-01,7.464600000000000402e-02,7.464600000000000402e-02,-2.738499999999999962e-02,1.001540000000000069e-01,4.913900000000000212e-02,1.511699999999999988e-01,3.042159999999999864e-01,2.276930000000000065e-01,2.532010000000000094e-01,7.464600000000000402e-02,7.464600000000000402e-02,1.511699999999999988e-01,4.913900000000000212e-02,1.256619999999999959e-01,1.001540000000000069e-01,-7.839999999999999747e-02,3.297240000000000171e-01,3.807389999999999941e-01,1.766770000000000007e-01,2.532010000000000094e-01,4.913900000000000212e-02,1.511699999999999988e-01,1.001540000000000069e-01,1.001540000000000069e-01,1.256619999999999959e-01,-1.876999999999999979e-03,3.297240000000000171e-01,1.766770000000000007e-01,2.532010000000000094e-01,1.001540000000000069e-01,2.532010000000000094e-01,4.913900000000000212e-02,1.511699999999999988e-01,1.001540000000000069e-01,7.464600000000000402e-02,1.511699999999999988e-01,2.276930000000000065e-01,3.297240000000000171e-01,1.766770000000000007e-01,1.511699999999999988e-01,1.511699999999999988e-01,1.256619999999999959e-01,2.363099999999999923e-02,1.001540000000000069e-01,-1.876999999999999979e-03,1.766770000000000007e-01,2.021850000000000036e-01,2.276930000000000065e-01,1.766770000000000007e-01,2.276930000000000065e-01,1.511699999999999988e-01,1.001540000000000069e-01,1.001540000000000069e-01,1.001540000000000069e-01,1.256619999999999959e-01,7.464600000000000402e-02,3.042159999999999864e-01,3.297240000000000171e-01,2.021850000000000036e-01,1.511699999999999988e-01,1.256619999999999959e-01,-2.738499999999999962e-02,1.256619999999999959e-01,-1.876999999999999979e-03,7.464600000000000402e-02,2.363099999999999923e-02,2.787080000000000113e-01,2.787080000000000113e-01,1.766770000000000007e-01,1.766770000000000007e-01,1.766770000000000007e-01,1.256619999999999959e-01,1.256619999999999959e-01,1.001540000000000069e-01,1.001540000000000069e-01,1.511699999999999988e-01,1.766770000000000007e-01,3.552319999999999922e-01,2.532010000000000094e-01,1.001540000000000069e-01,2.021850000000000036e-01,-1.876999999999999979e-03,1.766770000000000007e-01,-1.876999999999999979e-03,1.256619999999999959e-01,4.913900000000000212e-02,2.787080000000000113e-01,1.766770000000000007e-01,2.276930000000000065e-01,1.001540000000000069e-01,2.021850000000000036e-01,2.363099999999999923e-02,1.511699999999999988e-01,1.511699999999999988e-01,7.464600000000000402e-02,1.256619999999999959e-01,2.532010000000000094e-01,3.042159999999999864e-01,1.256619999999999959e-01,1.511699999999999988e-01,1.511699999999999988e-01,1.001540000000000069e-01,7.464600000000000402e-02,1.256619999999999959e-01,4.913900000000000212e-02,1.256619999999999959e-01,2.532010000000000094e-01,2.276930000000000065e-01,1.511699999999999988e-01,1.766770000000000007e-01,2.532010000000000094e-01,2.363099999999999923e-02,1.001540000000000069e-01,2.363099999999999923e-02,7.464600000000000402e-02,7.464600000000000402e-02,2.276930000000000065e-01,3.552319999999999922e-01,1.511699999999999988e-01,1.766770000000000007e-01,1.766770000000000007e-01,1.001540000000000069e-01,1.256619999999999959e-01,1.256619999999999959e-01,4.913900000000000212e-02,1.256619999999999959e-01,2.787080000000000113e-01,1.256619999999999959e-01,1.766770000000000007e-01,7.464600000000000402e-02,1.766770000000000007e-01,1.256619999999999959e-01,1.511699999999999988e-01,7.464600000000000402e-02,7.464600000000000402e-02,4.913900000000000212e-02,2.532010000000000094e-01,3.807389999999999941e-01,2.276930000000000065e-01,2.276930000000000065e-01,2.532010000000000094e-01,1.001540000000000069e-01,2.363099999999999923e-02,-7.839999999999999747e-02,2.363099999999999923e-02,1.256619999999999959e-01,3.807389999999999941e-01,3.552319999999999922e-01,2.532010000000000094e-01,1.766770000000000007e-01,1.766770000000000007e-01,-2.738499999999999962e-02,4.913900000000000212e-02,2.363099999999999923e-02,2.363099999999999923e-02,1.766770000000000007e-01,1.766770000000000007e-01,3.807389999999999941e-01,1.766770000000000007e-01,3.042159999999999864e-01,1.256619999999999959e-01,1.256619999999999959e-01,-2.738499999999999962e-02,2.363099999999999923e-02,4.913900000000000212e-02,4.913900000000000212e-02,6.358169999999999655e-01,3.807389999999999941e-01,2.532010000000000094e-01,-1.876999999999999979e-03,1.001540000000000069e-01,-4.610159999999999814e-01,-1.876999999999999979e-03,1.001540000000000069e-01,2.532010000000000094e-01,1.511699999999999988e-01,4.317549999999999999e-01,4.317549999999999999e-01,2.532010000000000094e-01,4.572629999999999750e-01,2.276930000000000065e-01,-1.549230000000000051e-01,-2.569540000000000157e-01,-2.059390000000000109e-01,4.062470000000000248e-01,1.511699999999999988e-01,-5.289200000000000151e-02,2.021850000000000036e-01,3.297240000000000171e-01,5.848010000000000153e-01,4.572629999999999750e-01,2.787080000000000113e-01,-1.876999999999999979e-03,-4.100010000000000043e-01,-7.839999999999999747e-02,-4.100010000000000043e-01,4.572629999999999750e-01,7.633550000000000058e-01,6.103089999999999904e-01,1.001540000000000069e-01,-2.569540000000000157e-01,-3.334779999999999966e-01,-1.876999999999999979e-03,3.297240000000000171e-01,2.532010000000000094e-01,3.552319999999999922e-01,1.256619999999999959e-01,5.592939999999999579e-01,1.511699999999999988e-01,1.511699999999999988e-01,1.256619999999999959e-01,2.276930000000000065e-01,4.913900000000000212e-02,4.913900000000000212e-02,-1.876999999999999979e-03,-1.549230000000000051e-01,-1.804310000000000080e-01,1.766770000000000007e-01,4.062470000000000248e-01,5.848010000000000153e-01,4.317549999999999999e-01,3.042159999999999864e-01,-1.549230000000000051e-01,-5.120320000000000427e-01,-5.289200000000000151e-02,5.337859999999999827e-01,8.653859999999999886e-01,6.103089999999999904e-01,1.511699999999999988e-01,4.913900000000000212e-02,-1.039080000000000004e-01,-1.549230000000000051e-01,-2.314470000000000138e-01,-1.039080000000000004e-01,-1.549230000000000051e-01,-3.079700000000000215e-01,4.913900000000000212e-02,7.123399999999999732e-01,5.592939999999999579e-01,2.787080000000000113e-01,3.042159999999999864e-01,5.337859999999999827e-01,3.042159999999999864e-01,4.572629999999999750e-01,1.766770000000000007e-01,-1.876999999999999979e-03,2.532010000000000094e-01,-2.738499999999999962e-02,-1.294160000000000033e-01,-3.589849999999999985e-01,-1.294160000000000033e-01,-1.039080000000000004e-01,3.042159999999999864e-01,1.001540000000000069e-01,-6.395710000000000006e-01,2.532010000000000094e-01,7.888629999999999809e-01,1.043941000000000008e+00,5.848010000000000153e-01,-7.839999999999999747e-02,-5.289200000000000151e-02,3.297240000000000171e-01,1.001540000000000069e-01,2.276930000000000065e-01,1.511699999999999988e-01,-1.804310000000000080e-01,4.827699999999999769e-01,3.552319999999999922e-01,1.511699999999999988e-01,1.256619999999999959e-01,-2.824619999999999909e-01,-1.549230000000000051e-01,7.464600000000000402e-02,-1.549230000000000051e-01,2.363099999999999923e-02,7.464600000000000402e-02,2.276930000000000065e-01,2.363099999999999923e-02,3.042159999999999864e-01,-1.294160000000000033e-01,3.552319999999999922e-01,6.103089999999999904e-01,8.653859999999999886e-01,5.337859999999999827e-01,1.256619999999999959e-01,-7.160940000000000083e-01,-9.201559999999999739e-01,-1.039080000000000004e-01,1.511699999999999988e-01,6.868319999999999981e-01,9.674169999999999714e-01,7.633550000000000058e-01,4.062470000000000248e-01,-3.079700000000000215e-01,-6.905860000000000332e-01,2.363099999999999923e-02,3.807389999999999941e-01,6.613240000000000229e-01,2.276930000000000065e-01,-1.294160000000000033e-01,-1.039080000000000004e-01,-1.039080000000000004e-01,-2.738499999999999962e-02,2.021850000000000036e-01,2.363099999999999923e-02,3.552319999999999922e-01,-2.314470000000000138e-01,1.001540000000000069e-01,1.256619999999999959e-01,2.021850000000000036e-01,4.827699999999999769e-01,6.613240000000000229e-01,6.103089999999999904e-01,7.464600000000000402e-02,-1.549230000000000051e-01,-5.289200000000000151e-02,-1.039080000000000004e-01,1.766770000000000007e-01,2.021850000000000036e-01,2.276930000000000065e-01,-2.824619999999999909e-01,1.766770000000000007e-01,3.042159999999999864e-01,2.021850000000000036e-01,4.317549999999999999e-01,1.766770000000000007e-01,4.572629999999999750e-01,2.363099999999999923e-02,-2.738499999999999962e-02,-2.824619999999999909e-01,-1.804310000000000080e-01,1.766770000000000007e-01,-1.876999999999999979e-03,6.103089999999999904e-01,2.276930000000000065e-01,1.256619999999999959e-01,1.511699999999999988e-01,2.532010000000000094e-01,7.464600000000000402e-02,-7.839999999999999747e-02,1.256619999999999959e-01,1.511699999999999988e-01,4.062470000000000248e-01,6.358169999999999655e-01,8.143709999999999560e-01,3.042159999999999864e-01,-1.294160000000000033e-01,-4.610159999999999814e-01,-5.289200000000000151e-02,2.021850000000000036e-01,-5.289200000000000151e-02,-3.589849999999999985e-01,-1.039080000000000004e-01,6.613240000000000229e-01,-1.039080000000000004e-01,3.807389999999999941e-01,5.082780000000000076e-01,6.613240000000000229e-01,-2.738499999999999962e-02,-3.589849999999999985e-01,-1.549230000000000051e-01,1.256619999999999959e-01,2.276930000000000065e-01,2.787080000000000113e-01,2.021850000000000036e-01,1.766770000000000007e-01,2.532010000000000094e-01,3.552319999999999922e-01,7.464600000000000402e-02,1.001540000000000069e-01,-1.294160000000000033e-01,2.363099999999999923e-02,2.276930000000000065e-01,2.787080000000000113e-01,2.021850000000000036e-01,1.256619999999999959e-01,-6.140630000000000255e-01,3.297240000000000171e-01,8.398790000000000422e-01,8.653859999999999886e-01,5.337859999999999827e-01,1.256619999999999959e-01,-1.549230000000000051e-01,-4.610159999999999814e-01,-1.549230000000000051e-01,4.913900000000000212e-02,2.532010000000000094e-01,1.766770000000000007e-01,3.807389999999999941e-01,3.042159999999999864e-01,-5.289200000000000151e-02,-7.416019999999999834e-01,-2.738499999999999962e-02,5.337859999999999827e-01,6.103089999999999904e-01,5.337859999999999827e-01,4.572629999999999750e-01,4.572629999999999750e-01,1.256619999999999959e-01,4.913900000000000212e-02,-5.630469999999999642e-01,-3.334779999999999966e-01,-2.059390000000000109e-01,3.297240000000000171e-01,5.592939999999999579e-01,4.572629999999999750e-01,3.552319999999999922e-01,4.572629999999999750e-01,1.256619999999999959e-01,-1.039080000000000004e-01,2.363099999999999923e-02,-1.804310000000000080e-01,-4.100010000000000043e-01,2.787080000000000113e-01,2.787080000000000113e-01,4.062470000000000248e-01,3.552319999999999922e-01,2.787080000000000113e-01,-1.039080000000000004e-01,-2.824619999999999909e-01,1.766770000000000007e-01,2.021850000000000036e-01,5.592939999999999579e-01,3.807389999999999941e-01,4.062470000000000248e-01,3.552319999999999922e-01,-2.059390000000000109e-01,2.363099999999999923e-02,-4.100010000000000043e-01,-4.355089999999999795e-01,5.848010000000000153e-01,5.337859999999999827e-01,2.787080000000000113e-01,2.021850000000000036e-01,7.464600000000000402e-02,-1.294160000000000033e-01,-1.804310000000000080e-01,5.337859999999999827e-01,1.001540000000000069e-01,1.766770000000000007e-01,1.766770000000000007e-01,3.807389999999999941e-01,6.613240000000000229e-01,4.062470000000000248e-01,1.766770000000000007e-01,-8.691400000000000237e-01,-7.160940000000000083e-01,-7.839999999999999747e-02,2.021850000000000036e-01,5.337859999999999827e-01,6.103089999999999904e-01,3.552319999999999922e-01,4.572629999999999750e-01,3.552319999999999922e-01,7.464600000000000402e-02,1.256619999999999959e-01,1.511699999999999988e-01,-7.839999999999999747e-02,-1.039080000000000004e-01,2.363099999999999923e-02,3.807389999999999941e-01,1.256619999999999959e-01,1.511699999999999988e-01,-5.289200000000000151e-02,1.511699999999999988e-01,4.913900000000000212e-02,2.787080000000000113e-01,1.511699999999999988e-01,1.001540000000000069e-01,2.787080000000000113e-01,6.358169999999999655e-01,3.042159999999999864e-01,4.913900000000000212e-02,4.913900000000000212e-02,1.001540000000000069e-01,-2.314470000000000138e-01,-1.876999999999999979e-03,2.787080000000000113e-01,4.572629999999999750e-01,6.868319999999999981e-01,3.297240000000000171e-01,-1.294160000000000033e-01,-3.844929999999999737e-01,1.256619999999999959e-01,0.000000000000000000e+00,0.000000000000000000e+00,0.000000000000000000e+00,4.062470000000000248e-01,4.062470000000000248e-01,3.807389999999999941e-01,2.787080000000000113e-01,-1.876999999999999979e-03,-7.839999999999999747e-02,-1.876999999999999979e-03,-7.839999999999999747e-02,-2.824619999999999909e-01,-2.738499999999999962e-02,4.827699999999999769e-01,4.062470000000000248e-01,4.317549999999999999e-01,3.552319999999999922e-01,2.276930000000000065e-01,4.913900000000000212e-02,-7.839999999999999747e-02,-1.294160000000000033e-01,-2.314470000000000138e-01,3.807389999999999941e-01,4.062470000000000248e-01,3.042159999999999864e-01,1.511699999999999988e-01,-1.804310000000000080e-01,4.317549999999999999e-01,4.827699999999999769e-01,4.827699999999999769e-01,-1.549230000000000051e-01,-7.671090000000000408e-01,-1.294160000000000033e-01,6.613240000000000229e-01,5.592939999999999579e-01,4.572629999999999750e-01,4.572629999999999750e-01,-1.294160000000000033e-01,-2.314470000000000138e-01,-2.738499999999999962e-02,1.256619999999999959e-01,1.511699999999999988e-01,3.552319999999999922e-01,1.001540000000000069e-01,-1.039080000000000004e-01,-2.059390000000000109e-01,1.001540000000000069e-01,3.042159999999999864e-01,6.103089999999999904e-01,1.511699999999999988e-01,-2.738499999999999962e-02,-2.738499999999999962e-02,-3.079700000000000215e-01,2.787080000000000113e-01,4.827699999999999769e-01,5.848010000000000153e-01,7.123399999999999732e-01,3.297240000000000171e-01,2.363099999999999923e-02,-5.289200000000000151e-02,-2.738499999999999962e-02,-2.824619999999999909e-01,-5.289200000000000151e-02,1.256619999999999959e-01,-1.039080000000000004e-01,2.021850000000000036e-01,3.807389999999999941e-01,-5.289200000000000151e-02,2.532010000000000094e-01,3.297240000000000171e-01,2.532010000000000094e-01,2.532010000000000094e-01,4.317549999999999999e-01,3.042159999999999864e-01,-5.289200000000000151e-02,2.532010000000000094e-01,2.276930000000000065e-01,-1.549230000000000051e-01,7.464600000000000402e-02,-7.839999999999999747e-02,2.021850000000000036e-01,2.021850000000000036e-01,4.062470000000000248e-01,2.787080000000000113e-01,-4.100010000000000043e-01,-7.839999999999999747e-02,4.913900000000000212e-02,3.807389999999999941e-01,7.378479999999999484e-01,2.532010000000000094e-01,2.532010000000000094e-01,1.001540000000000069e-01,-1.294160000000000033e-01,2.021850000000000036e-01,4.913900000000000212e-02,-1.039080000000000004e-01,4.317549999999999999e-01,7.464600000000000402e-02,1.001540000000000069e-01,2.021850000000000036e-01,-4.355089999999999795e-01,1.001540000000000069e-01,7.464600000000000402e-02,4.572629999999999750e-01,4.572629999999999750e-01,3.807389999999999941e-01,2.276930000000000065e-01,-7.839999999999999747e-02,2.532010000000000094e-01,1.001540000000000069e-01,-7.839999999999999747e-02,4.913900000000000212e-02,3.042159999999999864e-01,2.363099999999999923e-02,1.256619999999999959e-01,2.021850000000000036e-01,-1.876999999999999979e-03,2.363099999999999923e-02,3.807389999999999941e-01,2.532010000000000094e-01,3.042159999999999864e-01,3.042159999999999864e-01,2.021850000000000036e-01,1.001540000000000069e-01,3.042159999999999864e-01,1.511699999999999988e-01,1.256619999999999959e-01,-6.395710000000000006e-01,-1.039080000000000004e-01,4.572629999999999750e-01,5.082780000000000076e-01,2.276930000000000065e-01,7.464600000000000402e-02,-2.059390000000000109e-01,3.552319999999999922e-01,2.276930000000000065e-01,2.532010000000000094e-01,1.001540000000000069e-01,-2.059390000000000109e-01,1.256619999999999959e-01,2.276930000000000065e-01,2.021850000000000036e-01,7.123399999999999732e-01,4.827699999999999769e-01,1.511699999999999988e-01,-1.876999999999999979e-03,-3.334779999999999966e-01,7.464600000000000402e-02,1.511699999999999988e-01,-5.289200000000000151e-02,5.848010000000000153e-01,6.613240000000000229e-01,4.572629999999999750e-01,1.511699999999999988e-01,-7.926170000000000160e-01,-5.289200000000000151e-02,4.062470000000000248e-01,3.807389999999999941e-01,-1.804310000000000080e-01,2.532010000000000094e-01,5.848010000000000153e-01,1.511699999999999988e-01,2.021850000000000036e-01,-1.549230000000000051e-01,-5.289200000000000151e-02,4.913900000000000212e-02,1.001540000000000069e-01,1.766770000000000007e-01,1.766770000000000007e-01,5.848010000000000153e-01,1.256619999999999959e-01,1.256619999999999959e-01,1.256619999999999959e-01,-2.059390000000000109e-01,1.766770000000000007e-01,2.276930000000000065e-01,2.787080000000000113e-01,7.464600000000000402e-02,-7.839999999999999747e-02,2.787080000000000113e-01,4.572629999999999750e-01,6.613240000000000229e-01,2.787080000000000113e-01,-3.334779999999999966e-01,-4.355089999999999795e-01,-4.610159999999999814e-01,4.572629999999999750e-01,8.398790000000000422e-01,7.378479999999999484e-01,4.062470000000000248e-01,3.297240000000000171e-01,1.766770000000000007e-01,2.363099999999999923e-02,-1.294160000000000033e-01,-4.610159999999999814e-01,-1.804310000000000080e-01,-2.738499999999999962e-02,7.464600000000000402e-02,2.787080000000000113e-01,3.552319999999999922e-01,1.766770000000000007e-01,-5.289200000000000151e-02,3.042159999999999864e-01,4.572629999999999750e-01,5.848010000000000153e-01,5.082780000000000076e-01,2.532010000000000094e-01,1.766770000000000007e-01,-2.059390000000000109e-01,-1.876999999999999979e-03,-3.589849999999999985e-01,7.464600000000000402e-02,2.363099999999999923e-02,3.552319999999999922e-01,5.082780000000000076e-01,5.592939999999999579e-01,2.787080000000000113e-01,1.001540000000000069e-01,7.464600000000000402e-02,-2.738499999999999962e-02,1.511699999999999988e-01,-1.294160000000000033e-01,-1.876999999999999979e-03,2.363099999999999923e-02,2.276930000000000065e-01,2.276930000000000065e-01,6.358169999999999655e-01,2.021850000000000036e-01,3.297240000000000171e-01,-4.100010000000000043e-01,-1.549230000000000051e-01,-1.876999999999999979e-03,1.511699999999999988e-01,3.552319999999999922e-01,-5.289200000000000151e-02,3.807389999999999941e-01,7.378479999999999484e-01,1.256619999999999959e-01,-1.876999999999999979e-03,-1.804310000000000080e-01,-4.100010000000000043e-01,2.532010000000000094e-01,5.848010000000000153e-01,5.592939999999999579e-01,4.913900000000000212e-02,2.532010000000000094e-01,1.001540000000000069e-01,2.021850000000000036e-01,-2.738499999999999962e-02,-7.839999999999999747e-02,-5.120320000000000427e-01,-1.294160000000000033e-01,1.511699999999999988e-01,5.082780000000000076e-01,2.532010000000000094e-01,4.317549999999999999e-01,4.827699999999999769e-01,2.787080000000000113e-01,1.256619999999999959e-01,-5.289200000000000151e-02,-1.549230000000000051e-01,2.363099999999999923e-02,1.256619999999999959e-01,7.464600000000000402e-02,3.552319999999999922e-01,1.001540000000000069e-01,2.787080000000000113e-01,3.807389999999999941e-01,-1.549230000000000051e-01,3.552319999999999922e-01,-7.839999999999999747e-02,3.042159999999999864e-01,1.511699999999999988e-01,-2.824619999999999909e-01,-4.100010000000000043e-01,1.001540000000000069e-01,7.123399999999999732e-01,6.613240000000000229e-01,4.572629999999999750e-01,1.001540000000000069e-01,4.317549999999999999e-01,2.276930000000000065e-01,2.021850000000000036e-01,-2.059390000000000109e-01,-5.289200000000000151e-02,1.001540000000000069e-01,1.001540000000000069e-01,-1.804310000000000080e-01,1.766770000000000007e-01,-1.876999999999999979e-03,2.787080000000000113e-01,-3.844929999999999737e-01,-3.589849999999999985e-01,-7.839999999999999747e-02,1.766770000000000007e-01,9.164020000000000499e-01,1.018432999999999922e+00,4.572629999999999750e-01,5.848010000000000153e-01,-5.289200000000000151e-02,-5.289200000000000151e-02,-2.569540000000000157e-01,-7.839999999999999747e-02,4.913900000000000212e-02,2.532010000000000094e-01,2.276930000000000065e-01,2.363099999999999923e-02,4.062470000000000248e-01,-2.824619999999999909e-01,-7.839999999999999747e-02,3.042159999999999864e-01,2.021850000000000036e-01,1.511699999999999988e-01,-1.039080000000000004e-01,4.062470000000000248e-01,4.572629999999999750e-01,3.807389999999999941e-01,1.001540000000000069e-01,-4.355089999999999795e-01,1.766770000000000007e-01,1.511699999999999988e-01,5.082780000000000076e-01,5.082780000000000076e-01,1.766770000000000007e-01,1.001540000000000069e-01,-3.079700000000000215e-01,1.766770000000000007e-01,4.572629999999999750e-01,1.256619999999999959e-01,-1.876999999999999979e-03,2.363099999999999923e-02,-2.738499999999999962e-02,1.511699999999999988e-01,1.766770000000000007e-01,1.001540000000000069e-01,2.276930000000000065e-01,1.511699999999999988e-01,-1.039080000000000004e-01,-1.039080000000000004e-01,4.827699999999999769e-01,3.042159999999999864e-01,3.042159999999999864e-01,-7.839999999999999747e-02,1.766770000000000007e-01,1.256619999999999959e-01,1.511699999999999988e-01,1.511699999999999988e-01,1.511699999999999988e-01,3.552319999999999922e-01,3.552319999999999922e-01,2.532010000000000094e-01,-2.569540000000000157e-01,-5.289200000000000151e-02,-2.738499999999999962e-02,4.317549999999999999e-01,5.082780000000000076e-01,1.001540000000000069e-01,7.464600000000000402e-02,-1.039080000000000004e-01,3.297240000000000171e-01,3.297240000000000171e-01,-1.039080000000000004e-01,1.256619999999999959e-01,1.256619999999999959e-01,1.766770000000000007e-01,2.276930000000000065e-01,1.001540000000000069e-01,1.001540000000000069e-01,-7.839999999999999747e-02,-5.289200000000000151e-02,-7.839999999999999747e-02,-2.738499999999999962e-02,5.082780000000000076e-01,3.552319999999999922e-01,2.021850000000000036e-01,2.532010000000000094e-01,3.042159999999999864e-01,3.042159999999999864e-01,2.532010000000000094e-01,1.766770000000000007e-01,3.042159999999999864e-01,-1.294160000000000033e-01,2.021850000000000036e-01,1.256619999999999959e-01,7.464600000000000402e-02,4.317549999999999999e-01,-7.839999999999999747e-02,-5.120320000000000427e-01,-2.059390000000000109e-01,-7.839999999999999747e-02,5.592939999999999579e-01,6.103089999999999904e-01,6.358169999999999655e-01,1.511699999999999988e-01,-6.395710000000000006e-01,1.001540000000000069e-01,-4.355089999999999795e-01,3.297240000000000171e-01,2.787080000000000113e-01,7.123399999999999732e-01,7.888629999999999809e-01,3.807389999999999941e-01,-2.314470000000000138e-01,-2.738499999999999962e-02,-7.839999999999999747e-02,-1.549230000000000051e-01,-5.289200000000000151e-02,-1.294160000000000033e-01,1.511699999999999988e-01,4.317549999999999999e-01,4.827699999999999769e-01,2.532010000000000094e-01,-1.294160000000000033e-01,-2.738499999999999962e-02,-3.589849999999999985e-01,3.297240000000000171e-01,3.042159999999999864e-01,2.532010000000000094e-01,4.062470000000000248e-01,4.827699999999999769e-01,5.337859999999999827e-01,2.276930000000000065e-01,-1.804310000000000080e-01,-4.610159999999999814e-01,-6.395710000000000006e-01,4.913900000000000212e-02,4.572629999999999750e-01,4.317549999999999999e-01,4.827699999999999769e-01,4.913900000000000212e-02,5.082780000000000076e-01,1.511699999999999988e-01,2.363099999999999923e-02,1.001540000000000069e-01,-2.314470000000000138e-01,1.001540000000000069e-01,2.532010000000000094e-01,3.552319999999999922e-01,2.363099999999999923e-02,4.913900000000000212e-02,3.552319999999999922e-01,2.532010000000000094e-01,1.001540000000000069e-01,-2.059390000000000109e-01,-1.804310000000000080e-01,1.766770000000000007e-01,2.532010000000000094e-01,3.807389999999999941e-01,2.276930000000000065e-01,3.807389999999999941e-01,2.532010000000000094e-01,4.913900000000000212e-02,-1.804310000000000080e-01,4.913900000000000212e-02,-2.314470000000000138e-01,1.511699999999999988e-01,2.276930000000000065e-01,5.082780000000000076e-01,2.276930000000000065e-01,6.613240000000000229e-01,4.317549999999999999e-01,4.913900000000000212e-02,4.913900000000000212e-02,1.001540000000000069e-01,-5.289200000000000151e-02,4.913900000000000212e-02,-2.738499999999999962e-02,1.256619999999999959e-01,1.511699999999999988e-01,2.787080000000000113e-01,-2.738499999999999962e-02,-1.039080000000000004e-01,-1.294160000000000033e-01,2.021850000000000036e-01,3.297240000000000171e-01,1.766770000000000007e-01,-2.738499999999999962e-02,3.297240000000000171e-01,3.552319999999999922e-01,5.848010000000000153e-01,5.337859999999999827e-01,2.532010000000000094e-01,7.464600000000000402e-02,4.913900000000000212e-02,-1.804310000000000080e-01,-1.039080000000000004e-01,-2.824619999999999909e-01,-1.549230000000000051e-01,3.807389999999999941e-01,8.653859999999999886e-01,7.633550000000000058e-01,-1.039080000000000004e-01,-3.844929999999999737e-01,-7.839999999999999747e-02,1.256619999999999959e-01,5.337859999999999827e-01,7.464600000000000402e-02,4.572629999999999750e-01,3.042159999999999864e-01,4.317549999999999999e-01,-5.289200000000000151e-02,-1.736404000000000059e+00,7.464600000000000402e-02,5.592939999999999579e-01,6.103089999999999904e-01,6.103089999999999904e-01,3.042159999999999864e-01,4.062470000000000248e-01,5.848010000000000153e-01,2.276930000000000065e-01,-2.314470000000000138e-01,-6.905860000000000332e-01,-5.289200000000000151e-02,4.317549999999999999e-01,3.807389999999999941e-01,3.552319999999999922e-01,2.532010000000000094e-01,1.511699999999999988e-01,3.297240000000000171e-01,2.021850000000000036e-01,-1.804310000000000080e-01,-5.289200000000000151e-02,-3.079700000000000215e-01,2.532010000000000094e-01,3.297240000000000171e-01,3.297240000000000171e-01,5.592939999999999579e-01,5.082780000000000076e-01,7.633550000000000058e-01,2.787080000000000113e-01,-3.844929999999999737e-01,-6.140630000000000255e-01,-1.294160000000000033e-01,1.766770000000000007e-01,2.021850000000000036e-01,3.552319999999999922e-01,5.592939999999999579e-01,6.103089999999999904e-01,2.532010000000000094e-01,-7.839999999999999747e-02,-5.375400000000000178e-01,-5.630469999999999642e-01,-1.039080000000000004e-01,4.317549999999999999e-01,4.317549999999999999e-01,5.848010000000000153e-01,5.082780000000000076e-01,3.042159999999999864e-01,4.572629999999999750e-01,2.276930000000000065e-01,-7.839999999999999747e-02,-4.355089999999999795e-01,-1.876999999999999979e-03,-1.294160000000000033e-01,4.913900000000000212e-02,2.787080000000000113e-01,6.358169999999999655e-01,3.552319999999999922e-01,2.276930000000000065e-01,2.276930000000000065e-01,-6.140630000000000255e-01,1.256619999999999959e-01,2.276930000000000065e-01,3.552319999999999922e-01,3.042159999999999864e-01,3.552319999999999922e-01,3.552319999999999922e-01,7.464600000000000402e-02,-2.738499999999999962e-02,1.001540000000000069e-01,-1.876999999999999979e-03,-1.294160000000000033e-01,4.913900000000000212e-02,2.276930000000000065e-01,3.042159999999999864e-01,1.511699999999999988e-01,4.317549999999999999e-01,-3.334779999999999966e-01,3.807389999999999941e-01,-1.876999999999999979e-03,3.042159999999999864e-01,-5.289200000000000151e-02,7.464600000000000402e-02,3.807389999999999941e-01,2.021850000000000036e-01,5.848010000000000153e-01,5.082780000000000076e-01,3.552319999999999922e-01,4.913900000000000212e-02,-2.059390000000000109e-01,-5.289200000000000151e-02,1.001540000000000069e-01,-1.039080000000000004e-01,-1.804310000000000080e-01,2.363099999999999923e-02,4.572629999999999750e-01,3.297240000000000171e-01,2.532010000000000094e-01,-2.059390000000000109e-01,2.532010000000000094e-01,2.276930000000000065e-01,2.276930000000000065e-01,-1.039080000000000004e-01,-2.738499999999999962e-02,-1.294160000000000033e-01,4.572629999999999750e-01,4.062470000000000248e-01,3.297240000000000171e-01,2.021850000000000036e-01,1.001540000000000069e-01,2.363099999999999923e-02,-1.804310000000000080e-01,-1.876999999999999979e-03,2.021850000000000036e-01,2.787080000000000113e-01,2.021850000000000036e-01,1.001540000000000069e-01,3.807389999999999941e-01,6.613240000000000229e-01,6.358169999999999655e-01,2.787080000000000113e-01,-1.294160000000000033e-01,-3.079700000000000215e-01,-1.549230000000000051e-01,-3.589849999999999985e-01,1.766770000000000007e-01,7.464600000000000402e-02,2.532010000000000094e-01,2.276930000000000065e-01,3.042159999999999864e-01,4.913900000000000212e-02,4.572629999999999750e-01,2.021850000000000036e-01,1.766770000000000007e-01,-5.120320000000000427e-01,-3.079700000000000215e-01,5.337859999999999827e-01,5.082780000000000076e-01,4.572629999999999750e-01,1.511699999999999988e-01,-2.824619999999999909e-01,3.552319999999999922e-01,5.848010000000000153e-01,1.766770000000000007e-01,-2.059390000000000109e-01,-3.844929999999999737e-01,2.532010000000000094e-01,5.337859999999999827e-01,4.062470000000000248e-01,3.042159999999999864e-01,-2.738499999999999962e-02,-1.804310000000000080e-01,-1.039080000000000004e-01,1.001540000000000069e-01,2.021850000000000036e-01,2.363099999999999923e-02,2.787080000000000113e-01,1.511699999999999988e-01,2.021850000000000036e-01,5.082780000000000076e-01,4.913900000000000212e-02,-2.738499999999999962e-02,1.511699999999999988e-01,7.464600000000000402e-02,1.766770000000000007e-01,4.062470000000000248e-01,1.511699999999999988e-01,1.766770000000000007e-01,1.256619999999999959e-01,2.363099999999999923e-02,3.297240000000000171e-01,3.807389999999999941e-01,-4.610159999999999814e-01,-1.804310000000000080e-01,1.511699999999999988e-01,1.511699999999999988e-01,5.592939999999999579e-01,4.062470000000000248e-01,3.552319999999999922e-01,-1.549230000000000051e-01,-3.844929999999999737e-01,-1.549230000000000051e-01,3.552319999999999922e-01,3.042159999999999864e-01,2.532010000000000094e-01,4.827699999999999769e-01,2.787080000000000113e-01,-1.804310000000000080e-01,1.766770000000000007e-01,-2.738499999999999962e-02,2.276930000000000065e-01,3.297240000000000171e-01,2.021850000000000036e-01,2.532010000000000094e-01,-2.738499999999999962e-02,1.766770000000000007e-01,1.511699999999999988e-01,-2.569540000000000157e-01,-6.905860000000000332e-01,-1.804310000000000080e-01,2.363099999999999923e-02,7.888629999999999809e-01,8.143709999999999560e-01,7.378479999999999484e-01,7.123399999999999732e-01,3.807389999999999941e-01,-2.059390000000000109e-01,-2.824619999999999909e-01,-5.289200000000000151e-02,1.511699999999999988e-01,-1.876999999999999979e-03,-2.059390000000000109e-01,-1.039080000000000004e-01,-1.876999999999999979e-03,2.532010000000000094e-01,3.042159999999999864e-01,-1.876999999999999979e-03,3.297240000000000171e-01,3.042159999999999864e-01,6.103089999999999904e-01,6.358169999999999655e-01,2.021850000000000036e-01,2.021850000000000036e-01,-4.355089999999999795e-01,-3.844929999999999737e-01,-1.549230000000000051e-01,2.787080000000000113e-01,1.766770000000000007e-01,4.827699999999999769e-01,2.021850000000000036e-01,2.021850000000000036e-01,-4.610159999999999814e-01,1.766770000000000007e-01,4.827699999999999769e-01,6.868319999999999981e-01,-2.059390000000000109e-01,-7.839999999999999747e-02,2.276930000000000065e-01,3.297240000000000171e-01,3.042159999999999864e-01,4.572629999999999750e-01,1.001540000000000069e-01,3.297240000000000171e-01,-1.039080000000000004e-01,-1.804310000000000080e-01,-2.824619999999999909e-01,2.021850000000000036e-01,2.021850000000000036e-01,3.807389999999999941e-01,2.021850000000000036e-01,2.363099999999999923e-02,-1.876999999999999979e-03,3.807389999999999941e-01,4.572629999999999750e-01,2.787080000000000113e-01,-8.946479999999999988e-01,-3.334779999999999966e-01,-7.839999999999999747e-02,6.103089999999999904e-01,1.145971999999999991e+00,9.419100000000000250e-01,-2.314470000000000138e-01,-5.120320000000000427e-01,2.532010000000000094e-01,4.317549999999999999e-01,3.042159999999999864e-01,3.042159999999999864e-01,1.511699999999999988e-01,4.913900000000000212e-02,-1.549230000000000051e-01,-5.289200000000000151e-02,-5.289200000000000151e-02,7.464600000000000402e-02,-2.314470000000000138e-01,-3.334779999999999966e-01,3.042159999999999864e-01,6.358169999999999655e-01,-5.289200000000000151e-02,2.532010000000000094e-01,5.082780000000000076e-01,2.787080000000000113e-01,5.337859999999999827e-01,-1.039080000000000004e-01,2.021850000000000036e-01,1.256619999999999959e-01,3.297240000000000171e-01,3.552319999999999922e-01,2.021850000000000036e-01,-2.569540000000000157e-01,1.001540000000000069e-01,2.363099999999999923e-02,4.062470000000000248e-01,1.766770000000000007e-01,-3.844929999999999737e-01,1.256619999999999959e-01,2.532010000000000094e-01,2.276930000000000065e-01,-2.738499999999999962e-02,3.807389999999999941e-01,2.363099999999999923e-02,2.787080000000000113e-01,2.021850000000000036e-01,-2.059390000000000109e-01,2.021850000000000036e-01,1.256619999999999959e-01,3.552319999999999922e-01,2.276930000000000065e-01,2.276930000000000065e-01,4.317549999999999999e-01,2.532010000000000094e-01,-2.738499999999999962e-02,-5.375400000000000178e-01,1.766770000000000007e-01,3.042159999999999864e-01,4.062470000000000248e-01,3.042159999999999864e-01,3.297240000000000171e-01,3.042159999999999864e-01,7.464600000000000402e-02,3.042159999999999864e-01,-5.289200000000000151e-02,-1.549230000000000051e-01,-2.569540000000000157e-01,1.001540000000000069e-01,2.787080000000000113e-01,3.042159999999999864e-01,1.766770000000000007e-01,-1.039080000000000004e-01,-5.630469999999999642e-01,2.532010000000000094e-01,5.592939999999999579e-01,3.807389999999999941e-01,5.082780000000000076e-01,2.276930000000000065e-01,-2.738499999999999962e-02,1.511699999999999988e-01,1.766770000000000007e-01,2.532010000000000094e-01,2.276930000000000065e-01,-5.289200000000000151e-02,-7.839999999999999747e-02,-2.738499999999999962e-02,-1.804310000000000080e-01,3.552319999999999922e-01,2.532010000000000094e-01,2.532010000000000094e-01,6.868319999999999981e-01,2.787080000000000113e-01,1.766770000000000007e-01,-1.804310000000000080e-01,-2.059390000000000109e-01,4.913900000000000212e-02,2.787080000000000113e-01,3.042159999999999864e-01,2.532010000000000094e-01,1.511699999999999988e-01,-1.804310000000000080e-01,-1.124217999999999940e+00,-2.059390000000000109e-01,5.592939999999999579e-01,9.929249999999999465e-01,8.653859999999999886e-01,7.123399999999999732e-01,-3.589849999999999985e-01,-3.079700000000000215e-01,7.464600000000000402e-02,6.103089999999999904e-01,5.082780000000000076e-01,4.913900000000000212e-02,-4.610159999999999814e-01,-1.039080000000000004e-01,3.552319999999999922e-01,3.297240000000000171e-01,1.766770000000000007e-01,-5.289200000000000151e-02,-7.839999999999999747e-02,2.532010000000000094e-01,1.511699999999999988e-01,3.042159999999999864e-01,4.062470000000000248e-01,1.511699999999999988e-01,-1.876999999999999979e-03,1.766770000000000007e-01,-2.738499999999999962e-02,-1.039080000000000004e-01,3.552319999999999922e-01,4.827699999999999769e-01,2.021850000000000036e-01,-1.549230000000000051e-01,-2.314470000000000138e-01,-2.738499999999999962e-02,-5.289200000000000151e-02,3.552319999999999922e-01,7.123399999999999732e-01,2.532010000000000094e-01,3.297240000000000171e-01,4.572629999999999750e-01,2.532010000000000094e-01,-2.738499999999999962e-02,2.532010000000000094e-01,7.464600000000000402e-02,4.913900000000000212e-02,-7.839999999999999747e-02,-2.314470000000000138e-01,-1.549230000000000051e-01,4.913900000000000212e-02,4.062470000000000248e-01,1.766770000000000007e-01,-1.294160000000000033e-01,2.532010000000000094e-01,-1.876999999999999979e-03,3.552319999999999922e-01,3.807389999999999941e-01,4.317549999999999999e-01,1.766770000000000007e-01,3.552319999999999922e-01,2.276930000000000065e-01,1.256619999999999959e-01,-2.314470000000000138e-01,1.256619999999999959e-01,2.363099999999999923e-02,-5.289200000000000151e-02,2.021850000000000036e-01,2.532010000000000094e-01,2.276930000000000065e-01,-1.039080000000000004e-01,2.532010000000000094e-01,4.062470000000000248e-01,6.103089999999999904e-01,3.297240000000000171e-01,-8.946479999999999988e-01,-2.059390000000000109e-01,2.787080000000000113e-01,2.276930000000000065e-01,3.807389999999999941e-01,3.807389999999999941e-01,4.572629999999999750e-01,1.256619999999999959e-01,-1.876999999999999979e-03,2.276930000000000065e-01,-7.839999999999999747e-02,1.001540000000000069e-01,-1.039080000000000004e-01,-1.876999999999999979e-03,-2.738499999999999962e-02,1.001540000000000069e-01,4.913900000000000212e-02,3.807389999999999941e-01,-2.569540000000000157e-01,3.042159999999999864e-01,1.766770000000000007e-01,4.062470000000000248e-01,6.103089999999999904e-01,1.511699999999999988e-01,1.511699999999999988e-01,7.464600000000000402e-02,-4.100010000000000043e-01,4.913900000000000212e-02,2.021850000000000036e-01,2.532010000000000094e-01,4.572629999999999750e-01,-1.876999999999999979e-03,2.021850000000000036e-01,2.363099999999999923e-02,1.511699999999999988e-01,7.464600000000000402e-02,1.001540000000000069e-01,-7.839999999999999747e-02,1.511699999999999988e-01,2.276930000000000065e-01,3.042159999999999864e-01,4.913900000000000212e-02,2.532010000000000094e-01,4.913900000000000212e-02,1.511699999999999988e-01,-3.589849999999999985e-01,-5.289200000000000151e-02,4.913900000000000212e-02,4.572629999999999750e-01,6.358169999999999655e-01,4.572629999999999750e-01,4.062470000000000248e-01,1.766770000000000007e-01,-2.569540000000000157e-01,-2.569540000000000157e-01,-3.589849999999999985e-01,3.552319999999999922e-01,6.358169999999999655e-01,5.848010000000000153e-01,2.787080000000000113e-01,-5.289200000000000151e-02,-2.059390000000000109e-01,-2.738499999999999962e-02,4.913900000000000212e-02,1.766770000000000007e-01,3.552319999999999922e-01,2.532010000000000094e-01,2.021850000000000036e-01,-1.876999999999999979e-03,1.256619999999999959e-01,2.787080000000000113e-01,2.021850000000000036e-01,1.256619999999999959e-01,1.511699999999999988e-01,-1.294160000000000033e-01,-7.839999999999999747e-02,-2.824619999999999909e-01,2.787080000000000113e-01,2.532010000000000094e-01,3.807389999999999941e-01,3.552319999999999922e-01,5.337859999999999827e-01,4.317549999999999999e-01,2.363099999999999923e-02,-1.039080000000000004e-01,-4.100010000000000043e-01,1.511699999999999988e-01,3.807389999999999941e-01,6.103089999999999904e-01,5.848010000000000153e-01,2.787080000000000113e-01,2.363099999999999923e-02,-1.876999999999999979e-03,-5.885550000000000503e-01,-1.039080000000000004e-01,-8.436329999999999663e-01,-1.804310000000000080e-01,5.592939999999999579e-01,1.018432999999999922e+00,1.069447999999999954e+00,4.827699999999999769e-01,3.807389999999999941e-01,-2.569540000000000157e-01,-8.181249999999999911e-01,-4.610159999999999814e-01,2.532010000000000094e-01,6.103089999999999904e-01,7.123399999999999732e-01,4.827699999999999769e-01,2.021850000000000036e-01,-7.839999999999999747e-02,-2.314470000000000138e-01,2.021850000000000036e-01,1.256619999999999959e-01,-2.824619999999999909e-01,-1.039080000000000004e-01,1.511699999999999988e-01,4.317549999999999999e-01,4.062470000000000248e-01,2.787080000000000113e-01,1.256619999999999959e-01,1.001540000000000069e-01,1.256619999999999959e-01,-2.738499999999999962e-02,1.256619999999999959e-01,2.532010000000000094e-01,-2.314470000000000138e-01,-7.839999999999999747e-02,1.511699999999999988e-01,6.868319999999999981e-01,3.552319999999999922e-01,2.532010000000000094e-01,7.464600000000000402e-02,3.552319999999999922e-01,-2.738499999999999962e-02,2.021850000000000036e-01,2.276930000000000065e-01,2.021850000000000036e-01,-2.314470000000000138e-01,-2.569540000000000157e-01,2.021850000000000036e-01,2.021850000000000036e-01,-5.289200000000000151e-02,1.256619999999999959e-01,4.913900000000000212e-02,2.021850000000000036e-01,2.532010000000000094e-01,3.042159999999999864e-01,2.276930000000000065e-01,2.787080000000000113e-01,5.592939999999999579e-01,1.511699999999999988e-01,4.913900000000000212e-02,-1.549230000000000051e-01,-7.839999999999999747e-02,1.511699999999999988e-01,3.552319999999999922e-01,1.511699999999999988e-01,-5.885550000000000503e-01,4.913900000000000212e-02,3.297240000000000171e-01,4.572629999999999750e-01,2.532010000000000094e-01,1.001540000000000069e-01,1.001540000000000069e-01,-5.289200000000000151e-02,4.317549999999999999e-01,3.552319999999999922e-01,4.572629999999999750e-01,2.363099999999999923e-02,-2.569540000000000157e-01,-1.039080000000000004e-01,1.511699999999999988e-01,2.276930000000000065e-01,3.297240000000000171e-01,2.363099999999999923e-02,2.363099999999999923e-02,-3.334779999999999966e-01,3.297240000000000171e-01,5.592939999999999579e-01,1.511699999999999988e-01,2.363099999999999923e-02,-1.039080000000000004e-01,3.297240000000000171e-01,2.276930000000000065e-01,2.363099999999999923e-02,2.787080000000000113e-01,1.511699999999999988e-01,2.532010000000000094e-01,1.001540000000000069e-01,-1.549230000000000051e-01,1.511699999999999988e-01,1.511699999999999988e-01,3.042159999999999864e-01,7.464600000000000402e-02,-1.039080000000000004e-01,-1.804310000000000080e-01,1.256619999999999959e-01,4.572629999999999750e-01,4.062470000000000248e-01,4.827699999999999769e-01,3.042159999999999864e-01,1.766770000000000007e-01,-5.289200000000000151e-02,-1.039080000000000004e-01,-1.294160000000000033e-01,2.532010000000000094e-01,2.787080000000000113e-01,1.001540000000000069e-01,1.511699999999999988e-01,1.256619999999999959e-01,1.511699999999999988e-01,4.913900000000000212e-02,2.787080000000000113e-01,-2.738499999999999962e-02,1.001540000000000069e-01,4.913900000000000212e-02,2.021850000000000036e-01,3.552319999999999922e-01,3.297240000000000171e-01,3.552319999999999922e-01,1.001540000000000069e-01,1.511699999999999988e-01,-1.039080000000000004e-01,-1.549230000000000051e-01,1.001540000000000069e-01,3.042159999999999864e-01,3.042159999999999864e-01,3.807389999999999941e-01,3.042159999999999864e-01,2.021850000000000036e-01,-4.865240000000000120e-01,-3.079700000000000215e-01,-2.738499999999999962e-02,2.787080000000000113e-01,3.297240000000000171e-01,6.613240000000000229e-01,1.511699999999999988e-01,6.358169999999999655e-01,5.592939999999999579e-01,3.552319999999999922e-01,1.766770000000000007e-01,-2.569540000000000157e-01,-2.569540000000000157e-01,-2.569540000000000157e-01,1.511699999999999988e-01,3.297240000000000171e-01,2.021850000000000036e-01,-5.289200000000000151e-02,4.913900000000000212e-02,1.256619999999999959e-01,2.532010000000000094e-01,2.532010000000000094e-01,2.021850000000000036e-01,3.042159999999999864e-01,2.532010000000000094e-01,5.337859999999999827e-01,2.276930000000000065e-01,2.363099999999999923e-02,-7.839999999999999747e-02,-2.569540000000000157e-01,1.256619999999999959e-01,2.276930000000000065e-01,-2.738499999999999962e-02,3.552319999999999922e-01,2.021850000000000036e-01,3.042159999999999864e-01,1.511699999999999988e-01,-3.589849999999999985e-01,4.913900000000000212e-02,4.062470000000000248e-01,3.552319999999999922e-01,4.572629999999999750e-01,3.807389999999999941e-01,1.766770000000000007e-01,-1.294160000000000033e-01,-2.569540000000000157e-01,-2.569540000000000157e-01,-4.610159999999999814e-01,3.297240000000000171e-01,4.572629999999999750e-01,5.337859999999999827e-01,5.848010000000000153e-01,2.532010000000000094e-01,-2.059390000000000109e-01,-2.059390000000000109e-01,-2.059390000000000109e-01,-1.876999999999999979e-03,3.297240000000000171e-01,6.613240000000000229e-01,5.592939999999999579e-01,1.511699999999999988e-01,-1.549230000000000051e-01,-1.039080000000000004e-01,-1.804310000000000080e-01,1.256619999999999959e-01,2.787080000000000113e-01,4.317549999999999999e-01,2.021850000000000036e-01,3.042159999999999864e-01,2.363099999999999923e-02,1.001540000000000069e-01,-5.289200000000000151e-02,2.276930000000000065e-01,-1.294160000000000033e-01,1.001540000000000069e-01,2.021850000000000036e-01,4.317549999999999999e-01,2.276930000000000065e-01,1.001540000000000069e-01,2.532010000000000094e-01,-1.294160000000000033e-01,-5.289200000000000151e-02,-3.589849999999999985e-01,-1.294160000000000033e-01,4.062470000000000248e-01,8.908939999999999637e-01,3.042159999999999864e-01,3.297240000000000171e-01,5.592939999999999579e-01,2.021850000000000036e-01,-2.824619999999999909e-01,-6.905860000000000332e-01,-6.650779999999999470e-01,-1.876999999999999979e-03,5.848010000000000153e-01,7.888629999999999809e-01,5.337859999999999827e-01,2.532010000000000094e-01,-1.039080000000000004e-01,-5.289200000000000151e-02,7.464600000000000402e-02,1.001540000000000069e-01,1.766770000000000007e-01,2.787080000000000113e-01,2.276930000000000065e-01,3.552319999999999922e-01,-1.876999999999999979e-03,4.913900000000000212e-02,-5.289200000000000151e-02,1.511699999999999988e-01,-5.289200000000000151e-02,-5.289200000000000151e-02,4.913900000000000212e-02,1.766770000000000007e-01,3.042159999999999864e-01,4.572629999999999750e-01,3.297240000000000171e-01,3.552319999999999922e-01,4.062470000000000248e-01,1.256619999999999959e-01,-5.289200000000000151e-02,-3.844929999999999737e-01,-7.839999999999999747e-02,-1.039080000000000004e-01,1.766770000000000007e-01,2.276930000000000065e-01,2.532010000000000094e-01,3.807389999999999941e-01,-6.140630000000000255e-01,-7.839999999999999747e-02,-7.839999999999999747e-02,5.848010000000000153e-01,7.633550000000000058e-01,7.633550000000000058e-01,6.358169999999999655e-01,4.572629999999999750e-01,2.363099999999999923e-02,-2.738499999999999962e-02,-1.039080000000000004e-01,-2.569540000000000157e-01,-2.059390000000000109e-01,-2.738499999999999962e-02,1.001540000000000069e-01,-1.876999999999999979e-03,-5.289200000000000151e-02,-7.839999999999999747e-02,4.913900000000000212e-02,4.062470000000000248e-01,5.848010000000000153e-01,5.592939999999999579e-01,4.062470000000000248e-01,1.511699999999999988e-01,3.042159999999999864e-01,-2.738499999999999962e-02,-2.738499999999999962e-02,-2.314470000000000138e-01,-7.839999999999999747e-02,3.042159999999999864e-01,3.807389999999999941e-01,4.827699999999999769e-01,7.464600000000000402e-02,-2.738499999999999962e-02,-1.876999999999999979e-03,-1.876999999999999979e-03,5.082780000000000076e-01,-4.610159999999999814e-01,-2.059390000000000109e-01,4.062470000000000248e-01,3.042159999999999864e-01,7.123399999999999732e-01,2.532010000000000094e-01,2.532010000000000094e-01,-1.039080000000000004e-01,-1.876999999999999979e-03,4.913900000000000212e-02,-5.289200000000000151e-02,1.256619999999999959e-01,7.464600000000000402e-02,3.297240000000000171e-01,1.511699999999999988e-01,1.256619999999999959e-01,2.363099999999999923e-02,4.913900000000000212e-02,1.511699999999999988e-01,3.042159999999999864e-01,3.552319999999999922e-01,7.464600000000000402e-02,-5.289200000000000151e-02,-2.738499999999999962e-02,1.511699999999999988e-01,1.766770000000000007e-01,3.297240000000000171e-01,1.001540000000000069e-01,7.464600000000000402e-02,-1.549230000000000051e-01,2.276930000000000065e-01,1.766770000000000007e-01,1.001540000000000069e-01,5.848010000000000153e-01,2.021850000000000036e-01,1.766770000000000007e-01,7.464600000000000402e-02,-2.059390000000000109e-01,-5.289200000000000151e-02,2.532010000000000094e-01,2.532010000000000094e-01,1.001540000000000069e-01,3.297240000000000171e-01,-3.079700000000000215e-01,2.363099999999999923e-02,-1.876999999999999979e-03,3.552319999999999922e-01,5.592939999999999579e-01,1.511699999999999988e-01,1.511699999999999988e-01,4.913900000000000212e-02,2.021850000000000036e-01,2.021850000000000036e-01,7.464600000000000402e-02,1.256619999999999959e-01,-2.738499999999999962e-02,2.532010000000000094e-01,2.363099999999999923e-02,-2.738499999999999962e-02,3.297240000000000171e-01,1.766770000000000007e-01,1.511699999999999988e-01,2.021850000000000036e-01,3.807389999999999941e-01,-7.839999999999999747e-02,3.042159999999999864e-01,1.256619999999999959e-01,1.511699999999999988e-01,4.913900000000000212e-02,-5.289200000000000151e-02,2.787080000000000113e-01,3.552319999999999922e-01,1.766770000000000007e-01,-1.039080000000000004e-01,2.021850000000000036e-01,-7.839999999999999747e-02,-5.289200000000000151e-02,1.511699999999999988e-01,1.001540000000000069e-01,3.807389999999999941e-01,3.552319999999999922e-01,1.256619999999999959e-01,4.913900000000000212e-02,1.511699999999999988e-01,2.021850000000000036e-01,2.532010000000000094e-01,2.021850000000000036e-01,-1.876999999999999979e-03,7.464600000000000402e-02,2.532010000000000094e-01,1.766770000000000007e-01,-5.289200000000000151e-02,1.256619999999999959e-01,2.787080000000000113e-01,2.532010000000000094e-01,2.363099999999999923e-02,-1.876999999999999979e-03,-1.876999999999999979e-03,1.511699999999999988e-01,2.787080000000000113e-01,4.062470000000000248e-01,-3.334779999999999966e-01,-3.844929999999999737e-01,2.532010000000000094e-01,4.572629999999999750e-01,5.848010000000000153e-01,4.317549999999999999e-01,5.848010000000000153e-01,2.532010000000000094e-01,1.256619999999999959e-01,-2.569540000000000157e-01,-2.314470000000000138e-01,-1.039080000000000004e-01,3.552319999999999922e-01,4.913900000000000212e-02,2.021850000000000036e-01,1.511699999999999988e-01,-5.289200000000000151e-02,1.511699999999999988e-01,1.511699999999999988e-01,3.297240000000000171e-01,2.787080000000000113e-01,2.532010000000000094e-01,2.787080000000000113e-01,-2.738499999999999962e-02,2.276930000000000065e-01,1.001540000000000069e-01,-2.738499999999999962e-02,-1.876999999999999979e-03,2.276930000000000065e-01,2.021850000000000036e-01,-2.738499999999999962e-02,3.297240000000000171e-01,1.001540000000000069e-01,4.913900000000000212e-02,7.464600000000000402e-02,-3.589849999999999985e-01,-4.355089999999999795e-01,4.317549999999999999e-01,7.633550000000000058e-01,1.018432999999999922e+00,3.552319999999999922e-01,-1.039080000000000004e-01,-1.294160000000000033e-01,2.021850000000000036e-01,-7.839999999999999747e-02,2.021850000000000036e-01,1.511699999999999988e-01,-1.039080000000000004e-01,2.363099999999999923e-02,1.256619999999999959e-01,3.042159999999999864e-01,1.256619999999999959e-01,-7.839999999999999747e-02,4.913900000000000212e-02,-1.876999999999999979e-03,1.001540000000000069e-01,4.913900000000000212e-02,3.552319999999999922e-01,3.297240000000000171e-01,3.297240000000000171e-01,1.256619999999999959e-01,2.276930000000000065e-01,2.021850000000000036e-01,1.256619999999999959e-01,1.001540000000000069e-01,-1.549230000000000051e-01,-3.079700000000000215e-01,-3.844929999999999737e-01,5.082780000000000076e-01,6.613240000000000229e-01,2.532010000000000094e-01,-7.839999999999999747e-02,-5.289200000000000151e-02,3.042159999999999864e-01,4.317549999999999999e-01,-1.876999999999999979e-03,2.276930000000000065e-01,-1.804310000000000080e-01,2.276930000000000065e-01,1.511699999999999988e-01,3.042159999999999864e-01,1.001540000000000069e-01,2.276930000000000065e-01,4.913900000000000212e-02,-7.839999999999999747e-02,-1.876999999999999979e-03,-1.804310000000000080e-01,1.256619999999999959e-01,5.592939999999999579e-01,4.317549999999999999e-01,2.021850000000000036e-01,-3.079700000000000215e-01,1.001540000000000069e-01,3.552319999999999922e-01,4.572629999999999750e-01,4.317549999999999999e-01,1.766770000000000007e-01,-1.294160000000000033e-01,-7.839999999999999747e-02,1.511699999999999988e-01,3.042159999999999864e-01,-1.876999999999999979e-03,2.363099999999999923e-02,-5.289200000000000151e-02,1.511699999999999988e-01,2.532010000000000094e-01,1.256619999999999959e-01,1.256619999999999959e-01,1.511699999999999988e-01,-5.289200000000000151e-02,-1.039080000000000004e-01,4.913900000000000212e-02,4.317549999999999999e-01,4.062470000000000248e-01,1.511699999999999988e-01,3.042159999999999864e-01,1.511699999999999988e-01,-5.289200000000000151e-02,1.256619999999999959e-01,2.787080000000000113e-01,-1.876999999999999979e-03,-1.039080000000000004e-01,-5.289200000000000151e-02,3.552319999999999922e-01,1.256619999999999959e-01,2.276930000000000065e-01,3.042159999999999864e-01,2.787080000000000113e-01,1.511699999999999988e-01,-2.314470000000000138e-01,-1.039080000000000004e-01,2.021850000000000036e-01,3.807389999999999941e-01,2.021850000000000036e-01,2.532010000000000094e-01,4.913900000000000212e-02,2.276930000000000065e-01,2.021850000000000036e-01,1.001540000000000069e-01,2.021850000000000036e-01,-7.839999999999999747e-02,7.464600000000000402e-02,3.042159999999999864e-01,2.021850000000000036e-01,2.532010000000000094e-01,1.256619999999999959e-01,4.913900000000000212e-02,2.363099999999999923e-02,1.001540000000000069e-01,4.913900000000000212e-02,2.276930000000000065e-01,-2.738499999999999962e-02,4.317549999999999999e-01,3.552319999999999922e-01,3.552319999999999922e-01,-7.839999999999999747e-02,-2.059390000000000109e-01,2.363099999999999923e-02,2.787080000000000113e-01,5.848010000000000153e-01,2.276930000000000065e-01,2.276930000000000065e-01,2.021850000000000036e-01,-5.289200000000000151e-02,-7.839999999999999747e-02,1.001540000000000069e-01,-1.804310000000000080e-01,1.001540000000000069e-01,1.256619999999999959e-01,2.276930000000000065e-01,3.552319999999999922e-01,2.021850000000000036e-01,1.001540000000000069e-01,2.021850000000000036e-01,4.913900000000000212e-02,7.464600000000000402e-02,4.913900000000000212e-02,1.256619999999999959e-01,2.021850000000000036e-01,2.787080000000000113e-01,4.572629999999999750e-01,3.552319999999999922e-01,2.021850000000000036e-01,-5.289200000000000151e-02,-4.865240000000000120e-01,-4.610159999999999814e-01,2.787080000000000113e-01,3.807389999999999941e-01,6.103089999999999904e-01,4.572629999999999750e-01,4.062470000000000248e-01,-5.289200000000000151e-02,-2.314470000000000138e-01,-1.039080000000000004e-01,7.464600000000000402e-02,1.766770000000000007e-01,2.021850000000000036e-01,2.021850000000000036e-01,1.256619999999999959e-01,2.363099999999999923e-02,2.532010000000000094e-01,1.766770000000000007e-01,3.042159999999999864e-01,4.572629999999999750e-01,7.464600000000000402e-02,-3.334779999999999966e-01,-2.569540000000000157e-01,4.913900000000000212e-02,4.062470000000000248e-01,4.062470000000000248e-01,3.807389999999999941e-01,3.807389999999999941e-01,1.511699999999999988e-01,4.913900000000000212e-02,-1.549230000000000051e-01,-2.738499999999999962e-02,1.511699999999999988e-01,-1.039080000000000004e-01,2.021850000000000036e-01,3.552319999999999922e-01,2.021850000000000036e-01,2.276930000000000065e-01,2.787080000000000113e-01,3.552319999999999922e-01,2.363099999999999923e-02,-3.589849999999999985e-01,4.913900000000000212e-02,1.511699999999999988e-01,2.532010000000000094e-01,4.913900000000000212e-02,2.363099999999999923e-02,1.001540000000000069e-01,3.042159999999999864e-01,4.572629999999999750e-01,5.592939999999999579e-01,-1.039080000000000004e-01,-1.549230000000000051e-01,-2.314470000000000138e-01,2.276930000000000065e-01,4.827699999999999769e-01,2.276930000000000065e-01,1.256619999999999959e-01,2.363099999999999923e-02,-1.039080000000000004e-01,-1.549230000000000051e-01,-1.804310000000000080e-01,2.021850000000000036e-01,3.552319999999999922e-01,4.317549999999999999e-01,2.276930000000000065e-01,4.317549999999999999e-01,1.001540000000000069e-01,1.511699999999999988e-01,1.511699999999999988e-01,-1.294160000000000033e-01,-1.549230000000000051e-01,2.363099999999999923e-02,2.532010000000000094e-01,2.021850000000000036e-01,1.001540000000000069e-01,2.363099999999999923e-02,-1.876999999999999979e-03,5.337859999999999827e-01,4.572629999999999750e-01,3.297240000000000171e-01,2.276930000000000065e-01,-5.289200000000000151e-02,-1.294160000000000033e-01,-2.314470000000000138e-01,2.276930000000000065e-01,2.787080000000000113e-01,2.021850000000000036e-01,4.572629999999999750e-01,1.256619999999999959e-01,2.276930000000000065e-01,-4.865240000000000120e-01,-2.569540000000000157e-01,1.001540000000000069e-01,2.021850000000000036e-01,7.633550000000000058e-01,4.062470000000000248e-01,2.276930000000000065e-01,-2.569540000000000157e-01,-5.289200000000000151e-02,2.532010000000000094e-01,2.021850000000000036e-01,1.511699999999999988e-01,1.256619999999999959e-01,2.363099999999999923e-02,-1.876999999999999979e-03,1.256619999999999959e-01,2.532010000000000094e-01,3.552319999999999922e-01,1.001540000000000069e-01,-7.839999999999999747e-02,-1.549230000000000051e-01,-1.876999999999999979e-03,1.766770000000000007e-01,3.807389999999999941e-01,3.807389999999999941e-01,2.276930000000000065e-01,2.021850000000000036e-01,3.297240000000000171e-01,3.297240000000000171e-01,-2.314470000000000138e-01,-2.824619999999999909e-01,-2.738499999999999962e-02,2.532010000000000094e-01,-5.289200000000000151e-02,2.787080000000000113e-01,3.552319999999999922e-01,2.532010000000000094e-01,3.042159999999999864e-01,2.532010000000000094e-01,-1.876999999999999979e-03,2.276930000000000065e-01,-1.876999999999999979e-03,2.363099999999999923e-02,-7.839999999999999747e-02,1.511699999999999988e-01,-1.876999999999999979e-03,-7.839999999999999747e-02,3.297240000000000171e-01,4.062470000000000248e-01,2.532010000000000094e-01,1.511699999999999988e-01,1.511699999999999988e-01,2.363099999999999923e-02,1.511699999999999988e-01,1.256619999999999959e-01,3.807389999999999941e-01,2.532010000000000094e-01,-5.289200000000000151e-02,2.532010000000000094e-01,2.363099999999999923e-02,1.256619999999999959e-01,1.766770000000000007e-01,2.021850000000000036e-01,-1.876999999999999979e-03,2.276930000000000065e-01,3.807389999999999941e-01,1.511699999999999988e-01,-1.876999999999999979e-03,-3.589849999999999985e-01,1.001540000000000069e-01,3.042159999999999864e-01,3.552319999999999922e-01,2.021850000000000036e-01,2.021850000000000036e-01,3.297240000000000171e-01,-1.294160000000000033e-01,2.276930000000000065e-01,1.001540000000000069e-01,2.363099999999999923e-02,1.511699999999999988e-01,1.511699999999999988e-01,4.913900000000000212e-02,1.511699999999999988e-01,2.363099999999999923e-02,1.256619999999999959e-01,2.787080000000000113e-01,2.021850000000000036e-01,3.297240000000000171e-01,2.532010000000000094e-01,2.276930000000000065e-01,4.913900000000000212e-02,-1.039080000000000004e-01,1.001540000000000069e-01,3.552319999999999922e-01,-7.839999999999999747e-02,4.913900000000000212e-02,-7.839999999999999747e-02,3.552319999999999922e-01,3.807389999999999941e-01,1.001540000000000069e-01,1.511699999999999988e-01,-5.289200000000000151e-02,1.256619999999999959e-01,2.363099999999999923e-02,4.913900000000000212e-02,2.532010000000000094e-01,2.363099999999999923e-02,3.552319999999999922e-01,2.787080000000000113e-01,2.787080000000000113e-01,1.256619999999999959e-01,1.001540000000000069e-01,-7.839999999999999747e-02,1.001540000000000069e-01,2.276930000000000065e-01,2.276930000000000065e-01,1.511699999999999988e-01,-1.876999999999999979e-03,2.021850000000000036e-01,1.001540000000000069e-01,2.021850000000000036e-01,2.276930000000000065e-01,-2.738499999999999962e-02,2.363099999999999923e-02,3.042159999999999864e-01,1.766770000000000007e-01,6.103089999999999904e-01,1.001540000000000069e-01,7.464600000000000402e-02,-3.589849999999999985e-01,-3.079700000000000215e-01,2.021850000000000036e-01,2.021850000000000036e-01,3.297240000000000171e-01,1.766770000000000007e-01,2.276930000000000065e-01,1.511699999999999988e-01,2.021850000000000036e-01,1.511699999999999988e-01,1.766770000000000007e-01,2.276930000000000065e-01,-1.876999999999999979e-03,-1.039080000000000004e-01,1.256619999999999959e-01,3.807389999999999941e-01,2.532010000000000094e-01,3.552319999999999922e-01,2.532010000000000094e-01,2.363099999999999923e-02,-3.844929999999999737e-01,-1.549230000000000051e-01,2.021850000000000036e-01,1.766770000000000007e-01,2.532010000000000094e-01,3.297240000000000171e-01,4.913900000000000212e-02,2.532010000000000094e-01,3.807389999999999941e-01,2.021850000000000036e-01,2.363099999999999923e-02,-1.549230000000000051e-01,-2.569540000000000157e-01,1.256619999999999959e-01,2.532010000000000094e-01,3.552319999999999922e-01,1.001540000000000069e-01,-2.738499999999999962e-02,-1.876999999999999979e-03,3.042159999999999864e-01,3.807389999999999941e-01,1.001540000000000069e-01,1.766770000000000007e-01,2.363099999999999923e-02,3.552319999999999922e-01,2.532010000000000094e-01,4.317549999999999999e-01,1.766770000000000007e-01,-2.738499999999999962e-02,-2.569540000000000157e-01,-2.569540000000000157e-01,2.276930000000000065e-01,3.552319999999999922e-01,2.276930000000000065e-01,3.807389999999999941e-01,3.042159999999999864e-01,1.256619999999999959e-01,-2.059390000000000109e-01,-2.059390000000000109e-01,2.276930000000000065e-01,3.042159999999999864e-01,3.552319999999999922e-01,1.256619999999999959e-01,2.363099999999999923e-02,2.021850000000000036e-01,2.532010000000000094e-01,2.021850000000000036e-01,1.766770000000000007e-01,-5.289200000000000151e-02,4.913900000000000212e-02,-1.549230000000000051e-01,2.532010000000000094e-01,1.256619999999999959e-01,7.464600000000000402e-02,2.363099999999999923e-02,1.511699999999999988e-01,4.062470000000000248e-01,3.042159999999999864e-01,3.552319999999999922e-01,-1.039080000000000004e-01,7.464600000000000402e-02,1.256619999999999959e-01,2.021850000000000036e-01,2.787080000000000113e-01,1.511699999999999988e-01,1.256619999999999959e-01,1.511699999999999988e-01,1.511699999999999988e-01,2.276930000000000065e-01,2.532010000000000094e-01,1.511699999999999988e-01,-1.039080000000000004e-01,-2.059390000000000109e-01,2.363099999999999923e-02,-5.289200000000000151e-02,4.827699999999999769e-01,2.787080000000000113e-01,3.042159999999999864e-01,-1.876999999999999979e-03,1.511699999999999988e-01,-1.876999999999999979e-03,3.552319999999999922e-01,2.532010000000000094e-01,4.913900000000000212e-02,1.766770000000000007e-01,1.256619999999999959e-01,3.042159999999999864e-01,1.511699999999999988e-01,2.363099999999999923e-02,2.532010000000000094e-01,-1.876999999999999979e-03,1.511699999999999988e-01,2.363099999999999923e-02,-3.844929999999999737e-01,7.464600000000000402e-02,1.511699999999999988e-01,3.042159999999999864e-01,2.532010000000000094e-01,5.848010000000000153e-01,3.297240000000000171e-01,1.766770000000000007e-01,1.511699999999999988e-01,4.913900000000000212e-02,4.913900000000000212e-02,-5.289200000000000151e-02,-5.289200000000000151e-02,2.276930000000000065e-01,-7.839999999999999747e-02,3.552319999999999922e-01,2.021850000000000036e-01,1.001540000000000069e-01,1.001540000000000069e-01,2.276930000000000065e-01,1.001540000000000069e-01,1.511699999999999988e-01,1.256619999999999959e-01,2.021850000000000036e-01,2.787080000000000113e-01,2.532010000000000094e-01,1.001540000000000069e-01,-2.738499999999999962e-02,-2.569540000000000157e-01,4.062470000000000248e-01,2.276930000000000065e-01,1.256619999999999959e-01,-5.289200000000000151e-02,3.552319999999999922e-01,4.913900000000000212e-02,7.464600000000000402e-02,4.913900000000000212e-02,1.766770000000000007e-01,7.464600000000000402e-02,4.062470000000000248e-01,2.532010000000000094e-01,1.256619999999999959e-01,1.511699999999999988e-01,-1.804310000000000080e-01,-1.876999999999999979e-03,4.062470000000000248e-01,2.532010000000000094e-01,1.766770000000000007e-01,-2.738499999999999962e-02,-3.589849999999999985e-01,1.511699999999999988e-01,1.511699999999999988e-01,2.363099999999999923e-02,1.256619999999999959e-01,1.766770000000000007e-01,7.464600000000000402e-02,4.827699999999999769e-01,3.297240000000000171e-01,1.766770000000000007e-01,3.042159999999999864e-01,-1.876999999999999979e-03,1.001540000000000069e-01,2.021850000000000036e-01,1.766770000000000007e-01,-1.876999999999999979e-03,-5.289200000000000151e-02,-2.738499999999999962e-02,-2.738499999999999962e-02,2.021850000000000036e-01,2.021850000000000036e-01,1.511699999999999988e-01,2.532010000000000094e-01,2.363099999999999923e-02,3.552319999999999922e-01,2.021850000000000036e-01,2.532010000000000094e-01,4.572629999999999750e-01,1.256619999999999959e-01,-2.059390000000000109e-01,-4.865240000000000120e-01,-5.885550000000000503e-01,4.572629999999999750e-01,4.317549999999999999e-01,5.082780000000000076e-01,6.358169999999999655e-01,3.552319999999999922e-01,3.042159999999999864e-01,-7.839999999999999747e-02,-1.876999999999999979e-03,-1.549230000000000051e-01,2.363099999999999923e-02,1.256619999999999959e-01,2.787080000000000113e-01,3.042159999999999864e-01,-2.738499999999999962e-02,-2.569540000000000157e-01,-2.738499999999999962e-02,2.363099999999999923e-02,7.464600000000000402e-02,5.592939999999999579e-01,-1.294160000000000033e-01,4.913900000000000212e-02,1.766770000000000007e-01,4.572629999999999750e-01,1.511699999999999988e-01,3.807389999999999941e-01,3.552319999999999922e-01,3.552319999999999922e-01,1.001540000000000069e-01,1.001540000000000069e-01,-2.059390000000000109e-01,-2.824619999999999909e-01,-1.804310000000000080e-01,2.021850000000000036e-01,3.042159999999999864e-01,2.532010000000000094e-01,3.042159999999999864e-01,-5.289200000000000151e-02,2.276930000000000065e-01,2.276930000000000065e-01,1.511699999999999988e-01,1.001540000000000069e-01,1.766770000000000007e-01,3.042159999999999864e-01,2.532010000000000094e-01,2.276930000000000065e-01,2.363099999999999923e-02,-1.876999999999999979e-03,-5.289200000000000151e-02,1.766770000000000007e-01,7.464600000000000402e-02,1.511699999999999988e-01,-5.289200000000000151e-02,-1.804310000000000080e-01,-2.738499999999999962e-02,4.572629999999999750e-01,5.592939999999999579e-01,1.256619999999999959e-01,2.276930000000000065e-01,2.363099999999999923e-02,2.363099999999999923e-02,2.276930000000000065e-01,2.787080000000000113e-01,4.913900000000000212e-02,1.001540000000000069e-01,1.256619999999999959e-01,2.787080000000000113e-01,1.766770000000000007e-01,1.001540000000000069e-01,7.464600000000000402e-02,2.363099999999999923e-02,2.363099999999999923e-02,7.464600000000000402e-02,2.787080000000000113e-01,1.511699999999999988e-01,2.021850000000000036e-01,2.276930000000000065e-01,1.511699999999999988e-01,-2.738499999999999962e-02,-1.039080000000000004e-01,-2.738499999999999962e-02,1.511699999999999988e-01,2.787080000000000113e-01,1.766770000000000007e-01,2.787080000000000113e-01,3.042159999999999864e-01,4.827699999999999769e-01,1.766770000000000007e-01,1.001540000000000069e-01,-2.314470000000000138e-01,-1.039080000000000004e-01,-5.289200000000000151e-02,1.511699999999999988e-01,-1.039080000000000004e-01,4.062470000000000248e-01,5.592939999999999579e-01,2.276930000000000065e-01,-1.876999999999999979e-03,7.464600000000000402e-02,1.001540000000000069e-01,2.532010000000000094e-01,1.256619999999999959e-01,7.464600000000000402e-02,-7.839999999999999747e-02,2.363099999999999923e-02,1.511699999999999988e-01,2.276930000000000065e-01,1.511699999999999988e-01,-4.610159999999999814e-01,-2.738499999999999962e-02,-1.876999999999999979e-03,3.042159999999999864e-01,3.297240000000000171e-01,6.358169999999999655e-01,5.592939999999999579e-01,5.082780000000000076e-01,1.511699999999999988e-01,4.913900000000000212e-02,-1.039080000000000004e-01,-1.804310000000000080e-01,-7.839999999999999747e-02,2.363099999999999923e-02,1.766770000000000007e-01,1.256619999999999959e-01,-5.289200000000000151e-02,1.511699999999999988e-01,1.256619999999999959e-01,2.276930000000000065e-01,2.532010000000000094e-01,2.787080000000000113e-01,1.001540000000000069e-01,2.363099999999999923e-02,1.511699999999999988e-01,3.552319999999999922e-01,1.001540000000000069e-01,2.276930000000000065e-01,1.001540000000000069e-01,3.297240000000000171e-01,-5.289200000000000151e-02,-2.738499999999999962e-02,-1.804310000000000080e-01,-4.865240000000000120e-01,-1.876999999999999979e-03,4.572629999999999750e-01,5.082780000000000076e-01,5.082780000000000076e-01,6.358169999999999655e-01,2.787080000000000113e-01,2.276930000000000065e-01,-5.289200000000000151e-02,-1.294160000000000033e-01,4.913900000000000212e-02,1.001540000000000069e-01,2.021850000000000036e-01,-1.039080000000000004e-01,1.001540000000000069e-01,1.256619999999999959e-01,2.787080000000000113e-01,2.363099999999999923e-02,4.913900000000000212e-02,-1.039080000000000004e-01,1.001540000000000069e-01,3.297240000000000171e-01,3.807389999999999941e-01,3.297240000000000171e-01,1.001540000000000069e-01,7.464600000000000402e-02,3.297240000000000171e-01,2.787080000000000113e-01,2.787080000000000113e-01,-2.738499999999999962e-02,-1.039080000000000004e-01,1.766770000000000007e-01,-1.039080000000000004e-01,3.552319999999999922e-01,1.256619999999999959e-01,2.021850000000000036e-01,-1.876999999999999979e-03,1.256619999999999959e-01,1.511699999999999988e-01,7.464600000000000402e-02,2.787080000000000113e-01,2.532010000000000094e-01,7.464600000000000402e-02,1.256619999999999959e-01,1.256619999999999959e-01,1.256619999999999959e-01,1.256619999999999959e-01,1.766770000000000007e-01,1.511699999999999988e-01,1.001540000000000069e-01,7.464600000000000402e-02,4.913900000000000212e-02,1.766770000000000007e-01,1.511699999999999988e-01,1.511699999999999988e-01,7.464600000000000402e-02,2.363099999999999923e-02,-1.549230000000000051e-01,4.317549999999999999e-01,-7.839999999999999747e-02,1.766770000000000007e-01,3.807389999999999941e-01,4.317549999999999999e-01,2.532010000000000094e-01,2.787080000000000113e-01,2.021850000000000036e-01,1.511699999999999988e-01,4.913900000000000212e-02,-5.289200000000000151e-02,-4.355089999999999795e-01,-2.569540000000000157e-01,1.766770000000000007e-01,3.552319999999999922e-01,3.042159999999999864e-01,2.021850000000000036e-01,2.787080000000000113e-01,2.363099999999999923e-02,2.276930000000000065e-01,7.464600000000000402e-02,-2.738499999999999962e-02,1.256619999999999959e-01,2.532010000000000094e-01,2.532010000000000094e-01,2.021850000000000036e-01,3.042159999999999864e-01,4.913900000000000212e-02,-5.289200000000000151e-02,1.511699999999999988e-01,4.913900000000000212e-02,1.511699999999999988e-01,3.042159999999999864e-01,1.511699999999999988e-01,3.042159999999999864e-01,4.913900000000000212e-02,2.363099999999999923e-02,-1.039080000000000004e-01,1.001540000000000069e-01,-1.876999999999999979e-03,2.532010000000000094e-01,2.532010000000000094e-01,1.766770000000000007e-01,2.276930000000000065e-01,2.276930000000000065e-01,2.787080000000000113e-01,1.256619999999999959e-01,2.021850000000000036e-01,-1.294160000000000033e-01,4.913900000000000212e-02,-1.039080000000000004e-01,-1.876999999999999979e-03,2.021850000000000036e-01,2.276930000000000065e-01,3.807389999999999941e-01,3.552319999999999922e-01,-1.876999999999999979e-03,2.276930000000000065e-01,4.913900000000000212e-02,-3.334779999999999966e-01,2.363099999999999923e-02,-1.039080000000000004e-01,4.062470000000000248e-01,6.103089999999999904e-01,3.042159999999999864e-01,2.276930000000000065e-01,2.276930000000000065e-01,2.276930000000000065e-01,-1.039080000000000004e-01,-4.610159999999999814e-01,-7.839999999999999747e-02,1.001540000000000069e-01,3.807389999999999941e-01,5.592939999999999579e-01,2.787080000000000113e-01,1.511699999999999988e-01,2.532010000000000094e-01,2.787080000000000113e-01,1.256619999999999959e-01,-1.876999999999999979e-03,4.913900000000000212e-02,-2.569540000000000157e-01,-2.738499999999999962e-02,1.766770000000000007e-01,3.552319999999999922e-01,3.297240000000000171e-01,1.001540000000000069e-01,7.464600000000000402e-02,-1.294160000000000033e-01,-3.079700000000000215e-01,1.256619999999999959e-01,4.572629999999999750e-01,5.848010000000000153e-01,5.592939999999999579e-01,4.827699999999999769e-01,1.511699999999999988e-01,-1.294160000000000033e-01,-7.839999999999999747e-02,-2.314470000000000138e-01,-5.289200000000000151e-02,1.766770000000000007e-01,7.464600000000000402e-02,2.787080000000000113e-01,3.042159999999999864e-01,3.807389999999999941e-01,1.511699999999999988e-01,2.787080000000000113e-01,-2.738499999999999962e-02,-4.100010000000000043e-01,-1.294160000000000033e-01,-7.839999999999999747e-02,2.532010000000000094e-01,3.297240000000000171e-01,4.062470000000000248e-01,4.827699999999999769e-01,3.807389999999999941e-01,1.511699999999999988e-01,2.021850000000000036e-01,-1.039080000000000004e-01,-5.120320000000000427e-01,1.001540000000000069e-01,1.766770000000000007e-01,2.532010000000000094e-01,4.062470000000000248e-01,2.787080000000000113e-01,3.552319999999999922e-01,2.021850000000000036e-01,-2.738499999999999962e-02,-1.294160000000000033e-01,2.363099999999999923e-02,1.511699999999999988e-01,-5.289200000000000151e-02,3.297240000000000171e-01,2.021850000000000036e-01,3.297240000000000171e-01,1.001540000000000069e-01,3.042159999999999864e-01,-7.839999999999999747e-02,1.001540000000000069e-01,1.256619999999999959e-01,1.766770000000000007e-01,-1.039080000000000004e-01,-5.289200000000000151e-02,2.787080000000000113e-01,3.807389999999999941e-01,5.592939999999999579e-01,1.511699999999999988e-01,1.256619999999999959e-01,4.913900000000000212e-02,1.001540000000000069e-01,3.042159999999999864e-01,-1.876999999999999979e-03,-2.824619999999999909e-01,-5.289200000000000151e-02,2.276930000000000065e-01,3.552319999999999922e-01,5.082780000000000076e-01,4.572629999999999750e-01,1.511699999999999988e-01,2.021850000000000036e-01,-5.289200000000000151e-02,-1.549230000000000051e-01,-7.839999999999999747e-02,1.511699999999999988e-01,7.464600000000000402e-02,7.464600000000000402e-02,3.807389999999999941e-01,3.297240000000000171e-01,1.511699999999999988e-01,1.256619999999999959e-01,1.511699999999999988e-01,4.913900000000000212e-02,1.256619999999999959e-01,1.256619999999999959e-01,1.766770000000000007e-01,4.913900000000000212e-02,3.297240000000000171e-01,2.021850000000000036e-01,2.532010000000000094e-01,1.256619999999999959e-01,4.913900000000000212e-02,1.511699999999999988e-01,2.021850000000000036e-01,-2.738499999999999962e-02,-5.630469999999999642e-01,4.913900000000000212e-02,2.021850000000000036e-01,-7.839999999999999747e-02,7.888629999999999809e-01,6.868319999999999981e-01,4.572629999999999750e-01,-5.289200000000000151e-02,-3.844929999999999737e-01,-5.289200000000000151e-02,1.256619999999999959e-01,2.532010000000000094e-01,3.807389999999999941e-01,1.511699999999999988e-01,4.913900000000000212e-02,-2.738499999999999962e-02,1.256619999999999959e-01,-1.876999999999999979e-03,2.363099999999999923e-02,3.042159999999999864e-01,1.256619999999999959e-01,1.001540000000000069e-01,3.042159999999999864e-01,2.276930000000000065e-01,4.062470000000000248e-01,2.787080000000000113e-01,2.021850000000000036e-01,-3.079700000000000215e-01,-1.294160000000000033e-01,2.021850000000000036e-01,4.062470000000000248e-01,4.572629999999999750e-01,2.276930000000000065e-01,2.276930000000000065e-01,-5.289200000000000151e-02,-5.289200000000000151e-02,4.913900000000000212e-02,4.913900000000000212e-02,1.256619999999999959e-01,7.464600000000000402e-02,1.766770000000000007e-01,-1.294160000000000033e-01,4.913900000000000212e-02,2.021850000000000036e-01,2.276930000000000065e-01,3.297240000000000171e-01,2.276930000000000065e-01,1.001540000000000069e-01,2.787080000000000113e-01,2.021850000000000036e-01,3.552319999999999922e-01,3.552319999999999922e-01,2.276930000000000065e-01,-1.876999999999999979e-03,-5.630469999999999642e-01,-7.671090000000000408e-01,2.787080000000000113e-01,-1.876999999999999979e-03,3.552319999999999922e-01,5.592939999999999579e-01,4.827699999999999769e-01,2.276930000000000065e-01,1.511699999999999988e-01,1.766770000000000007e-01,2.787080000000000113e-01,2.021850000000000036e-01,4.913900000000000212e-02,-2.738499999999999962e-02,-1.549230000000000051e-01,7.464600000000000402e-02,1.511699999999999988e-01,2.532010000000000094e-01,1.256619999999999959e-01,2.276930000000000065e-01,1.511699999999999988e-01,1.256619999999999959e-01,2.363099999999999923e-02,1.256619999999999959e-01,1.511699999999999988e-01,1.511699999999999988e-01,3.042159999999999864e-01,-1.804310000000000080e-01,2.276930000000000065e-01,2.787080000000000113e-01,-2.738499999999999962e-02,5.337859999999999827e-01,4.317549999999999999e-01,2.532010000000000094e-01,2.363099999999999923e-02,-2.738499999999999962e-02,-2.738499999999999962e-02,1.511699999999999988e-01,-2.738499999999999962e-02,4.913900000000000212e-02,2.021850000000000036e-01,3.042159999999999864e-01
