7.219799999999999829e-02,1.997059999999999946e-01,1.742049999999999987e-01,-5.530999999999999805e-02,1.997059999999999946e-01,-1.318149999999999877e-01,-4.307000000000000065e-03,1.232010000000000050e-01,3.272140000000000049e-01,3.782179999999999986e-01,1.742049999999999987e-01,1.487030000000000018e-01,1.487030000000000018e-01,4.669600000000000140e-02,2.119499999999999856e-02,4.669600000000000140e-02,-2.980800000000000116e-02,1.997059999999999946e-01,4.037189999999999945e-01,3.017130000000000090e-01,2.507099999999999884e-01,1.487030000000000018e-01,9.769999999999999518e-02,1.742049999999999987e-01,-4.307000000000000065e-03,7.219799999999999829e-02,4.669600000000000140e-02,7.219799999999999829e-02,3.527159999999999740e-01,1.232010000000000050e-01,1.742049999999999987e-01,1.487030000000000018e-01,4.669600000000000140e-02,1.742049999999999987e-01,7.219799999999999829e-02,1.487030000000000018e-01,1.232010000000000050e-01,4.669600000000000140e-02,3.782179999999999986e-01,2.762109999999999843e-01,9.769999999999999518e-02,2.252079999999999915e-01,2.119499999999999856e-02,1.487030000000000018e-01,1.232010000000000050e-01,-4.307000000000000065e-03,-4.307000000000000065e-03,4.669600000000000140e-02,3.272140000000000049e-01,3.272140000000000049e-01,1.487030000000000018e-01,1.997059999999999946e-01,1.487030000000000018e-01,-4.307000000000000065e-03,2.119499999999999856e-02,1.487030000000000018e-01,4.669600000000000140e-02,2.762109999999999843e-01,4.292210000000000192e-01,2.507099999999999884e-01,2.762109999999999843e-01,9.769999999999999518e-02,7.219799999999999829e-02,2.119499999999999856e-02,-2.980800000000000116e-02,-4.307000000000000065e-03,1.232010000000000050e-01,1.232010000000000050e-01,4.037189999999999945e-01,2.762109999999999843e-01,1.487030000000000018e-01,2.762109999999999843e-01,1.232010000000000050e-01,-2.980800000000000116e-02,9.769999999999999518e-02,2.119499999999999856e-02,4.669600000000000140e-02,7.219799999999999829e-02,2.252079999999999915e-01,2.762109999999999843e-01,3.017130000000000090e-01,1.997059999999999946e-01,2.252079999999999915e-01,7.219799999999999829e-02,-4.307000000000000065e-03,2.119499999999999856e-02,-2.980800000000000116e-02,1.232010000000000050e-01,3.527159999999999740e-01,3.272140000000000049e-01,2.252079999999999915e-01,3.017130000000000090e-01,1.232010000000000050e-01,2.119499999999999856e-02,-4.307000000000000065e-03,-2.980800000000000116e-02,1.232010000000000050e-01,2.252079999999999915e-01,3.017130000000000090e-01,2.762109999999999843e-01,1.487030000000000018e-01,9.769999999999999518e-02,1.232010000000000050e-01,2.119499999999999856e-02,-8.081199999999999495e-02,2.119499999999999856e-02,-2.980800000000000116e-02,1.487030000000000018e-01,4.037189999999999945e-01,2.762109999999999843e-01,1.997059999999999946e-01,1.742049999999999987e-01,-2.980800000000000116e-02,4.669600000000000140e-02,4.669600000000000140e-02,1.742049999999999987e-01,1.232010000000000050e-01,1.487030000000000018e-01,3.527159999999999740e-01,1.742049999999999987e-01,1.232010000000000050e-01,1.742049999999999987e-01,4.669600000000000140e-02,9.769999999999999518e-02,-4.307000000000000065e-03,9.769999999999999518e-02,2.119499999999999856e-02,2.507099999999999884e-01,3.272140000000000049e-01,3.272140000000000049e-01,2.252079999999999915e-01,1.487030000000000018e-01,7.219799999999999829e-02,-2.980800000000000116e-02,1.487030000000000018e-01,-5.530999999999999805e-02,1.487030000000000018e-01,9.769999999999999518e-02,4.802239999999999842e-01,1.997059999999999946e-01,2.507099999999999884e-01,1.742049999999999987e-01,1.232010000000000050e-01,4.669600000000000140e-02,4.669600000000000140e-02,4.669600000000000140e-02,-5.530999999999999805e-02,2.252079999999999915e-01,2.762109999999999843e-01,3.017130000000000090e-01,2.252079999999999915e-01,1.487030000000000018e-01,1.232010000000000050e-01,-8.081199999999999495e-02,9.769999999999999518e-02,4.669600000000000140e-02,4.669600000000000140e-02,2.252079999999999915e-01,3.272140000000000049e-01,3.527159999999999740e-01,2.252079999999999915e-01,1.742049999999999987e-01,7.219799999999999829e-02,-5.530999999999999805e-02,7.219799999999999829e-02,-5.530999999999999805e-02,4.669600000000000140e-02,1.742049999999999987e-01,3.272140000000000049e-01,2.762109999999999843e-01,1.997059999999999946e-01,1.997059999999999946e-01,1.232010000000000050e-01,2.119499999999999856e-02,-4.307000000000000065e-03,-4.307000000000000065e-03,-5.530999999999999805e-02,2.252079999999999915e-01,3.527159999999999740e-01,3.272140000000000049e-01,1.487030000000000018e-01,2.762109999999999843e-01,1.232010000000000050e-01,1.232010000000000050e-01,-4.307000000000000065e-03,7.219799999999999829e-02,-8.081199999999999495e-02,9.769999999999999518e-02,3.272140000000000049e-01,3.782179999999999986e-01,2.507099999999999884e-01,1.742049999999999987e-01,1.232010000000000050e-01,2.119499999999999856e-02,1.232010000000000050e-01,-5.530999999999999805e-02,-4.307000000000000065e-03,1.997059999999999946e-01,3.782179999999999986e-01,3.272140000000000049e-01,1.232010000000000050e-01,1.487030000000000018e-01,1.232010000000000050e-01,2.119499999999999856e-02,1.742049999999999987e-01,-4.307000000000000065e-03,7.219799999999999829e-02,1.742049999999999987e-01,2.762109999999999843e-01,2.762109999999999843e-01,1.232010000000000050e-01,1.232010000000000050e-01,7.219799999999999829e-02,7.219799999999999829e-02,2.119499999999999856e-02,-4.307000000000000065e-03,1.232010000000000050e-01,1.232010000000000050e-01,4.802239999999999842e-01,2.252079999999999915e-01,2.507099999999999884e-01,4.669600000000000140e-02,9.769999999999999518e-02,-5.530999999999999805e-02,1.232010000000000050e-01,-4.307000000000000065e-03,1.232010000000000050e-01,1.487030000000000018e-01,3.527159999999999740e-01,3.272140000000000049e-01,2.507099999999999884e-01,1.487030000000000018e-01,7.219799999999999829e-02,-4.307000000000000065e-03,2.119499999999999856e-02,2.119499999999999856e-02,7.219799999999999829e-02,1.997059999999999946e-01,3.782179999999999986e-01,2.762109999999999843e-01,7.219799999999999829e-02,1.997059999999999946e-01,4.669600000000000140e-02,1.487030000000000018e-01,7.219799999999999829e-02,1.742049999999999987e-01,-2.980800000000000116e-02,1.997059999999999946e-01,2.762109999999999843e-01,3.017130000000000090e-01,1.232010000000000050e-01,2.507099999999999884e-01,4.669600000000000140e-02,7.219799999999999829e-02,-4.307000000000000065e-03,9.769999999999999518e-02,-2.980800000000000116e-02,2.252079999999999915e-01,3.782179999999999986e-01,3.272140000000000049e-01,1.232010000000000050e-01,1.742049999999999987e-01,4.669600000000000140e-02,2.119499999999999856e-02,-4.307000000000000065e-03,2.119499999999999856e-02,1.232010000000000050e-01,2.119499999999999856e-02,4.037189999999999945e-01,2.507099999999999884e-01,3.017130000000000090e-01,1.742049999999999987e-01,9.769999999999999518e-02,-4.307000000000000065e-03,2.119499999999999856e-02,2.119499999999999856e-02,7.219799999999999829e-02,1.742049999999999987e-01,4.547229999999999883e-01,2.762109999999999843e-01,1.232010000000000050e-01,1.742049999999999987e-01,2.119499999999999856e-02,9.769999999999999518e-02,-4.307000000000000065e-03,9.769999999999999518e-02,-5.530999999999999805e-02,1.997059999999999946e-01,2.762109999999999843e-01,3.527159999999999740e-01,2.252079999999999915e-01,1.742049999999999987e-01,1.997059999999999946e-01,1.487030000000000018e-01,2.119499999999999856e-02,1.232010000000000050e-01,-2.980800000000000116e-02,1.232010000000000050e-01,4.037189999999999945e-01,1.742049999999999987e-01,1.742049999999999987e-01,1.232010000000000050e-01,9.769999999999999518e-02,9.769999999999999518e-02,-4.307000000000000065e-03,1.487030000000000018e-01,4.669600000000000140e-02,1.742049999999999987e-01,4.037189999999999945e-01,1.997059999999999946e-01,1.232010000000000050e-01,1.487030000000000018e-01,2.119499999999999856e-02,1.487030000000000018e-01,2.119499999999999856e-02,7.219799999999999829e-02,1.487030000000000018e-01,7.219799999999999829e-02,2.762109999999999843e-01,1.742049999999999987e-01,1.232010000000000050e-01,1.487030000000000018e-01,1.487030000000000018e-01,7.219799999999999829e-02,1.997059999999999946e-01,2.119499999999999856e-02,2.119499999999999856e-02,1.232010000000000050e-01,2.762109999999999843e-01,1.997059999999999946e-01,2.762109999999999843e-01,1.487030000000000018e-01,1.232010000000000050e-01,7.219799999999999829e-02,1.997059999999999946e-01,2.119499999999999856e-02,7.219799999999999829e-02,9.769999999999999518e-02,1.997059999999999946e-01,1.232010000000000050e-01,1.487030000000000018e-01,9.769999999999999518e-02,1.232010000000000050e-01,-4.307000000000000065e-03,2.119499999999999856e-02,7.219799999999999829e-02,1.232010000000000050e-01,1.232010000000000050e-01,4.037189999999999945e-01,2.762109999999999843e-01,1.232010000000000050e-01,3.017130000000000090e-01,1.997059999999999946e-01,7.219799999999999829e-02,9.769999999999999518e-02,-1.318149999999999877e-01,-2.980800000000000116e-02,4.669600000000000140e-02,2.252079999999999915e-01,3.017130000000000090e-01,1.487030000000000018e-01,2.762109999999999843e-01,2.252079999999999915e-01,2.119499999999999856e-02,9.769999999999999518e-02,2.119499999999999856e-02,-5.530999999999999805e-02,2.252079999999999915e-01,1.997059999999999946e-01,9.769999999999999518e-02,2.252079999999999915e-01,1.742049999999999987e-01,3.782179999999999986e-01,1.487030000000000018e-01,1.997059999999999946e-01,-2.980800000000000116e-02,-1.828180000000000083e-01,1.232010000000000050e-01,2.252079999999999915e-01,1.997059999999999946e-01,1.742049999999999987e-01,3.272140000000000049e-01,1.232010000000000050e-01,1.232010000000000050e-01,-4.307000000000000065e-03,-4.307000000000000065e-03,4.669600000000000140e-02,2.507099999999999884e-01,3.017130000000000090e-01,3.782179999999999986e-01,3.527159999999999740e-01,1.997059999999999946e-01,1.997059999999999946e-01,2.119499999999999856e-02,-8.081199999999999495e-02,-1.318149999999999877e-01,-2.083200000000000052e-01,9.769999999999999518e-02,1.232010000000000050e-01,3.017130000000000090e-01,3.272140000000000049e-01,4.037189999999999945e-01,4.292210000000000192e-01,-5.530999999999999805e-02,2.119499999999999856e-02,-8.081199999999999495e-02,9.769999999999999518e-02,2.252079999999999915e-01,3.272140000000000049e-01,2.507099999999999884e-01,4.669600000000000140e-02,1.232010000000000050e-01,2.119499999999999856e-02,4.669600000000000140e-02,-2.980800000000000116e-02,-8.081199999999999495e-02,2.507099999999999884e-01,2.507099999999999884e-01,3.782179999999999986e-01,3.017130000000000090e-01,1.742049999999999987e-01,2.252079999999999915e-01,9.769999999999999518e-02,4.669600000000000140e-02,1.487030000000000018e-01,-8.081199999999999495e-02,-2.980800000000000116e-02,1.487030000000000018e-01,1.487030000000000018e-01,2.507099999999999884e-01,1.742049999999999987e-01,2.252079999999999915e-01,9.769999999999999518e-02,7.219799999999999829e-02,-4.307000000000000065e-03,7.219799999999999829e-02,-8.081199999999999495e-02,2.762109999999999843e-01,4.547229999999999883e-01,3.527159999999999740e-01,3.272140000000000049e-01,7.219799999999999829e-02,9.769999999999999518e-02,2.119499999999999856e-02,-5.530999999999999805e-02,-4.307000000000000065e-03,-5.530999999999999805e-02,1.487030000000000018e-01,4.292210000000000192e-01,1.997059999999999946e-01,2.252079999999999915e-01,3.017130000000000090e-01,2.252079999999999915e-01,4.669600000000000140e-02,-4.307000000000000065e-03,2.119499999999999856e-02,-2.980800000000000116e-02,2.119499999999999856e-02,3.017130000000000090e-01,2.252079999999999915e-01,2.762109999999999843e-01,1.232010000000000050e-01,1.742049999999999987e-01,9.769999999999999518e-02,-5.530999999999999805e-02,9.769999999999999518e-02,-8.081199999999999495e-02,1.232010000000000050e-01,4.292210000000000192e-01,4.292210000000000192e-01,1.997059999999999946e-01,2.252079999999999915e-01,1.487030000000000018e-01,2.119499999999999856e-02,4.669600000000000140e-02,2.119499999999999856e-02,7.219799999999999829e-02,1.232010000000000050e-01,1.232010000000000050e-01,2.762109999999999843e-01,2.507099999999999884e-01,3.017130000000000090e-01,1.742049999999999987e-01,4.669600000000000140e-02,1.232010000000000050e-01,4.669600000000000140e-02,-4.307000000000000065e-03,9.769999999999999518e-02,1.997059999999999946e-01,3.527159999999999740e-01,2.252079999999999915e-01,1.487030000000000018e-01,1.232010000000000050e-01,2.119499999999999856e-02,4.669600000000000140e-02,2.119499999999999856e-02,4.669600000000000140e-02,1.487030000000000018e-01,1.742049999999999987e-01,1.742049999999999987e-01,3.782179999999999986e-01,3.017130000000000090e-01,7.219799999999999829e-02,3.527159999999999740e-01,-8.081199999999999495e-02,-1.318149999999999877e-01,1.232010000000000050e-01,3.527159999999999740e-01,2.507099999999999884e-01,-2.980800000000000116e-02,1.997059999999999946e-01,9.769999999999999518e-02,7.219799999999999829e-02,7.219799999999999829e-02,9.769999999999999518e-02,2.507099999999999884e-01,3.272140000000000049e-01,3.272140000000000049e-01,2.762109999999999843e-01,7.219799999999999829e-02,1.742049999999999987e-01,9.769999999999999518e-02,1.487030000000000018e-01,1.487030000000000018e-01,-5.530999999999999805e-02,9.769999999999999518e-02,-2.980800000000000116e-02,3.017130000000000090e-01,3.017130000000000090e-01,2.252079999999999915e-01,1.997059999999999946e-01,1.487030000000000018e-01,-4.307000000000000065e-03,4.669600000000000140e-02,7.219799999999999829e-02,-4.307000000000000065e-03,4.669600000000000140e-02,1.232010000000000050e-01,4.037189999999999945e-01,1.487030000000000018e-01,3.017130000000000090e-01,1.997059999999999946e-01,2.252079999999999915e-01,-8.081199999999999495e-02,4.669600000000000140e-02,7.219799999999999829e-02,-1.318149999999999877e-01,2.507099999999999884e-01,3.272140000000000049e-01,3.272140000000000049e-01,4.292210000000000192e-01,3.272140000000000049e-01,4.547229999999999883e-01,-1.828180000000000083e-01,-2.593230000000000257e-01,-3.868309999999999804e-01,-1.573170000000000124e-01,-2.980800000000000116e-02,3.527159999999999740e-01,3.782179999999999986e-01,2.507099999999999884e-01,3.017130000000000090e-01,2.762109999999999843e-01,-2.980800000000000116e-02,1.232010000000000050e-01,1.487030000000000018e-01,1.997059999999999946e-01,2.762109999999999843e-01,4.037189999999999945e-01,1.997059999999999946e-01,-4.307000000000000065e-03,2.119499999999999856e-02,-2.980800000000000116e-02,1.232010000000000050e-01,-4.307000000000000065e-03,-5.530999999999999805e-02,1.487030000000000018e-01,1.487030000000000018e-01,4.037189999999999945e-01,1.232010000000000050e-01,2.762109999999999843e-01,2.507099999999999884e-01,1.742049999999999987e-01,1.997059999999999946e-01,1.742049999999999987e-01,7.219799999999999829e-02,-5.530999999999999805e-02,1.232010000000000050e-01,9.769999999999999518e-02,1.997059999999999946e-01,1.742049999999999987e-01,3.272140000000000049e-01,7.219799999999999829e-02,1.997059999999999946e-01,1.742049999999999987e-01,1.997059999999999946e-01,7.219799999999999829e-02,1.742049999999999987e-01,2.507099999999999884e-01,1.487030000000000018e-01,9.769999999999999518e-02,7.219799999999999829e-02,1.232010000000000050e-01,4.669600000000000140e-02,1.742049999999999987e-01,7.219799999999999829e-02,2.119499999999999856e-02,3.527159999999999740e-01,2.252079999999999915e-01,9.769999999999999518e-02,2.119499999999999856e-02,3.272140000000000049e-01,2.507099999999999884e-01,9.769999999999999518e-02,2.119499999999999856e-02,-8.081199999999999495e-02,-1.063130000000000047e-01,2.507099999999999884e-01,4.037189999999999945e-01,2.507099999999999884e-01,1.742049999999999987e-01,1.742049999999999987e-01,2.507099999999999884e-01,-8.081199999999999495e-02,9.769999999999999518e-02,-1.063130000000000047e-01,-4.307000000000000065e-03,3.017130000000000090e-01,4.037189999999999945e-01,7.219799999999999829e-02,7.219799999999999829e-02,2.119499999999999856e-02,1.997059999999999946e-01,-5.530999999999999805e-02,1.487030000000000018e-01,1.232010000000000050e-01,4.037189999999999945e-01,-5.530999999999999805e-02,2.507099999999999884e-01,7.219799999999999829e-02,3.272140000000000049e-01,2.252079999999999915e-01,1.232010000000000050e-01,1.742049999999999987e-01,1.742049999999999987e-01,7.219799999999999829e-02,-1.573170000000000124e-01,4.669600000000000140e-02,1.487030000000000018e-01,2.507099999999999884e-01,1.997059999999999946e-01,2.252079999999999915e-01,2.507099999999999884e-01,-1.063130000000000047e-01,7.219799999999999829e-02,-8.081199999999999495e-02,7.219799999999999829e-02,3.017130000000000090e-01,3.017130000000000090e-01,4.037189999999999945e-01,4.669600000000000140e-02,1.232010000000000050e-01,1.232010000000000050e-01,1.487030000000000018e-01,-1.828180000000000083e-01,2.119499999999999856e-02,9.769999999999999518e-02,3.527159999999999740e-01,3.527159999999999740e-01,3.782179999999999986e-01,2.119499999999999856e-02,1.232010000000000050e-01,1.742049999999999987e-01,-2.980800000000000116e-02,-5.530999999999999805e-02,1.487030000000000018e-01,-4.307000000000000065e-03,2.762109999999999843e-01,4.292210000000000192e-01,2.252079999999999915e-01,9.769999999999999518e-02,2.119499999999999856e-02,-1.573170000000000124e-01,-8.081199999999999495e-02,1.997059999999999946e-01,2.119499999999999856e-02,2.252079999999999915e-01,5.312280000000000335e-01,2.762109999999999843e-01,-4.307000000000000065e-03,1.742049999999999987e-01,1.742049999999999987e-01,1.487030000000000018e-01,-2.980800000000000116e-02,1.487030000000000018e-01,-2.338210000000000011e-01,4.669600000000000140e-02,7.219799999999999829e-02,3.272140000000000049e-01,2.252079999999999915e-01,9.769999999999999518e-02,1.742049999999999987e-01,1.997059999999999946e-01,-5.530999999999999805e-02,1.487030000000000018e-01,1.997059999999999946e-01,1.487030000000000018e-01,2.762109999999999843e-01,3.017130000000000090e-01,1.742049999999999987e-01,1.997059999999999946e-01,7.219799999999999829e-02,9.769999999999999518e-02,2.119499999999999856e-02,7.219799999999999829e-02,-2.338210000000000011e-01,1.487030000000000018e-01,1.742049999999999987e-01,3.272140000000000049e-01,1.487030000000000018e-01,1.742049999999999987e-01,1.487030000000000018e-01,1.742049999999999987e-01,1.997059999999999946e-01,1.487030000000000018e-01,2.119499999999999856e-02,-2.980800000000000116e-02,1.232010000000000050e-01,2.507099999999999884e-01,2.762109999999999843e-01,1.997059999999999946e-01,2.507099999999999884e-01,4.669600000000000140e-02,-4.307000000000000065e-03,2.252079999999999915e-01,-2.338210000000000011e-01,2.119499999999999856e-02,1.232010000000000050e-01,3.272140000000000049e-01,1.997059999999999946e-01,2.762109999999999843e-01,3.782179999999999986e-01,1.232010000000000050e-01,1.232010000000000050e-01,7.219799999999999829e-02,9.769999999999999518e-02,2.119499999999999856e-02,1.997059999999999946e-01,1.232010000000000050e-01,1.232010000000000050e-01,1.742049999999999987e-01,3.017130000000000090e-01,1.232010000000000050e-01,9.769999999999999518e-02,-2.980800000000000116e-02,-4.307000000000000065e-03,4.669600000000000140e-02,1.997059999999999946e-01,3.017130000000000090e-01,9.769999999999999518e-02,2.762109999999999843e-01,7.219799999999999829e-02,2.762109999999999843e-01,9.769999999999999518e-02,3.017130000000000090e-01,9.769999999999999518e-02,-8.081199999999999495e-02,7.219799999999999829e-02,1.742049999999999987e-01,1.487030000000000018e-01,9.769999999999999518e-02,3.527159999999999740e-01,9.769999999999999518e-02,2.762109999999999843e-01,-5.530999999999999805e-02,-5.530999999999999805e-02,1.487030000000000018e-01,3.272140000000000049e-01,2.762109999999999843e-01,7.219799999999999829e-02,1.742049999999999987e-01,7.219799999999999829e-02,2.762109999999999843e-01,4.669600000000000140e-02,-1.063130000000000047e-01,9.769999999999999518e-02,4.669600000000000140e-02,1.997059999999999946e-01,3.782179999999999986e-01,1.997059999999999946e-01,9.769999999999999518e-02,2.119499999999999856e-02,1.742049999999999987e-01,1.232010000000000050e-01,7.219799999999999829e-02,1.232010000000000050e-01,-4.307000000000000065e-03,1.997059999999999946e-01,3.272140000000000049e-01,9.769999999999999518e-02,1.487030000000000018e-01,1.487030000000000018e-01,1.232010000000000050e-01,2.119499999999999856e-02,2.119499999999999856e-02,4.669600000000000140e-02,7.219799999999999829e-02,1.232010000000000050e-01,4.037189999999999945e-01,1.997059999999999946e-01,1.742049999999999987e-01,-4.307000000000000065e-03,4.669600000000000140e-02,1.997059999999999946e-01,7.219799999999999829e-02,-2.980800000000000116e-02,-4.307000000000000065e-03,1.997059999999999946e-01,3.527159999999999740e-01,1.487030000000000018e-01,1.997059999999999946e-01,3.272140000000000049e-01,2.119499999999999856e-02,4.669600000000000140e-02,1.232010000000000050e-01,-8.081199999999999495e-02,2.507099999999999884e-01,1.487030000000000018e-01,3.017130000000000090e-01,1.997059999999999946e-01,1.487030000000000018e-01,1.742049999999999987e-01,4.669600000000000140e-02,9.769999999999999518e-02,1.487030000000000018e-01,-1.318149999999999877e-01,1.232010000000000050e-01,1.997059999999999946e-01,3.017130000000000090e-01,7.219799999999999829e-02,3.272140000000000049e-01,3.782179999999999986e-01,9.769999999999999518e-02,9.769999999999999518e-02,1.487030000000000018e-01,7.219799999999999829e-02,-2.980800000000000116e-02,1.232010000000000050e-01,3.272140000000000049e-01,1.232010000000000050e-01,1.742049999999999987e-01,9.769999999999999518e-02,1.487030000000000018e-01,1.742049999999999987e-01,2.252079999999999915e-01,-5.530999999999999805e-02,9.769999999999999518e-02,2.252079999999999915e-01,2.252079999999999915e-01,2.762109999999999843e-01,1.997059999999999946e-01,1.487030000000000018e-01,-5.530999999999999805e-02,4.669600000000000140e-02,-4.307000000000000065e-03,-4.307000000000000065e-03,7.219799999999999829e-02,1.997059999999999946e-01,3.782179999999999986e-01,1.997059999999999946e-01,4.669600000000000140e-02,7.219799999999999829e-02,9.769999999999999518e-02,1.232010000000000050e-01,3.527159999999999740e-01,1.487030000000000018e-01,9.769999999999999518e-02,2.507099999999999884e-01,4.037189999999999945e-01,2.252079999999999915e-01,2.119499999999999856e-02,-2.980800000000000116e-02,7.219799999999999829e-02,-4.307000000000000065e-03,2.119499999999999856e-02,-8.081199999999999495e-02,-5.530999999999999805e-02,2.507099999999999884e-01,4.292210000000000192e-01,4.547229999999999883e-01,3.017130000000000090e-01,1.487030000000000018e-01,7.219799999999999829e-02,4.669600000000000140e-02,-4.307000000000000065e-03,4.669600000000000140e-02,4.669600000000000140e-02,2.252079999999999915e-01,1.487030000000000018e-01,1.232010000000000050e-01,2.507099999999999884e-01,1.742049999999999987e-01,1.232010000000000050e-01,7.219799999999999829e-02,1.232010000000000050e-01,9.769999999999999518e-02,1.487030000000000018e-01,2.507099999999999884e-01,1.742049999999999987e-01,1.997059999999999946e-01,9.769999999999999518e-02,2.507099999999999884e-01,9.769999999999999518e-02,-5.530999999999999805e-02,-4.307000000000000065e-03,7.219799999999999829e-02,1.742049999999999987e-01,2.252079999999999915e-01,1.997059999999999946e-01,2.252079999999999915e-01,3.272140000000000049e-01,-1.828180000000000083e-01,2.119499999999999856e-02,7.219799999999999829e-02,1.232010000000000050e-01,1.232010000000000050e-01,7.219799999999999829e-02,1.742049999999999987e-01,3.782179999999999986e-01,2.252079999999999915e-01,3.272140000000000049e-01,1.232010000000000050e-01,2.507099999999999884e-01,-5.530999999999999805e-02,-4.307000000000000065e-03,-1.828180000000000083e-01,-4.307000000000000065e-03,3.527159999999999740e-01,9.769999999999999518e-02,3.272140000000000049e-01,4.037189999999999945e-01,3.527159999999999740e-01,1.997059999999999946e-01,-5.530999999999999805e-02,-1.318149999999999877e-01,-4.307000000000000065e-03,-8.081199999999999495e-02,2.252079999999999915e-01,1.487030000000000018e-01,3.782179999999999986e-01,2.507099999999999884e-01,1.997059999999999946e-01,-2.980800000000000116e-02,-4.307000000000000065e-03,7.219799999999999829e-02,2.507099999999999884e-01,1.742049999999999987e-01,2.507099999999999884e-01,1.997059999999999946e-01,2.252079999999999915e-01,1.742049999999999987e-01,-2.980800000000000116e-02,9.769999999999999518e-02,1.742049999999999987e-01,1.997059999999999946e-01,2.119499999999999856e-02,9.769999999999999518e-02,2.762109999999999843e-01,3.272140000000000049e-01,1.232010000000000050e-01,1.232010000000000050e-01,-4.307000000000000065e-03,7.219799999999999829e-02,1.997059999999999946e-01,1.997059999999999946e-01,-2.980800000000000116e-02,2.507099999999999884e-01,2.507099999999999884e-01,2.762109999999999843e-01,1.997059999999999946e-01,1.487030000000000018e-01,1.487030000000000018e-01,-1.063130000000000047e-01,4.669600000000000140e-02,1.232010000000000050e-01,4.669600000000000140e-02,1.997059999999999946e-01,1.232010000000000050e-01,3.272140000000000049e-01,1.232010000000000050e-01,2.252079999999999915e-01,9.769999999999999518e-02,-5.530999999999999805e-02,2.252079999999999915e-01,-8.081199999999999495e-02,4.669600000000000140e-02,2.119499999999999856e-02,5.057260000000000089e-01,2.762109999999999843e-01,2.507099999999999884e-01,3.272140000000000049e-01,2.762109999999999843e-01,9.769999999999999518e-02,-1.573170000000000124e-01,-1.318149999999999877e-01,-1.063130000000000047e-01,-8.081199999999999495e-02,1.997059999999999946e-01,4.292210000000000192e-01,5.057260000000000089e-01,2.252079999999999915e-01,1.742049999999999987e-01,-4.307000000000000065e-03,4.669600000000000140e-02,1.997059999999999946e-01,-4.307000000000000065e-03,1.742049999999999987e-01,9.769999999999999518e-02,1.997059999999999946e-01,2.252079999999999915e-01,2.762109999999999843e-01,7.219799999999999829e-02,2.507099999999999884e-01,-4.307000000000000065e-03,1.232010000000000050e-01,-4.307000000000000065e-03,1.487030000000000018e-01,3.017130000000000090e-01,3.017130000000000090e-01,1.997059999999999946e-01,7.219799999999999829e-02,2.507099999999999884e-01,2.762109999999999843e-01,-2.980800000000000116e-02,1.232010000000000050e-01,-4.307000000000000065e-03,-4.307000000000000065e-03,1.997059999999999946e-01,3.782179999999999986e-01,2.252079999999999915e-01,3.527159999999999740e-01,2.507099999999999884e-01,1.232010000000000050e-01,9.769999999999999518e-02,-5.530999999999999805e-02,-1.828180000000000083e-01,1.232010000000000050e-01,-8.081199999999999495e-02,1.742049999999999987e-01,3.782179999999999986e-01,4.037189999999999945e-01,4.292210000000000192e-01,7.219799999999999829e-02,2.119499999999999856e-02,1.742049999999999987e-01,1.232010000000000050e-01,1.487030000000000018e-01,4.802239999999999842e-01,1.997059999999999946e-01,1.232010000000000050e-01,1.487030000000000018e-01,-1.828180000000000083e-01,4.669600000000000140e-02,-2.980800000000000116e-02,-1.573170000000000124e-01,-5.530999999999999805e-02,7.219799999999999829e-02,2.762109999999999843e-01,6.842369999999999841e-01,1.232010000000000050e-01,1.742049999999999987e-01,1.232010000000000050e-01,-4.307000000000000065e-03,1.742049999999999987e-01,9.769999999999999518e-02,1.742049999999999987e-01,1.487030000000000018e-01,2.252079999999999915e-01,1.997059999999999946e-01,7.219799999999999829e-02,1.487030000000000018e-01,2.762109999999999843e-01,1.232010000000000050e-01,1.487030000000000018e-01,-2.980800000000000116e-02,1.232010000000000050e-01,-1.318149999999999877e-01,3.782179999999999986e-01,4.292210000000000192e-01,3.272140000000000049e-01,7.219799999999999829e-02,1.487030000000000018e-01,-8.081199999999999495e-02,-1.318149999999999877e-01,1.232010000000000050e-01,-2.980800000000000116e-02,1.487030000000000018e-01,4.292210000000000192e-01,1.997059999999999946e-01,1.232010000000000050e-01,1.487030000000000018e-01,1.997059999999999946e-01,4.669600000000000140e-02,1.742049999999999987e-01,1.232010000000000050e-01,2.507099999999999884e-01,9.769999999999999518e-02,2.507099999999999884e-01,1.742049999999999987e-01,1.232010000000000050e-01,1.232010000000000050e-01,1.232010000000000050e-01,1.742049999999999987e-01,2.119499999999999856e-02,4.669600000000000140e-02,-5.530999999999999805e-02,-4.307000000000000065e-03,4.802239999999999842e-01,2.252079999999999915e-01,9.769999999999999518e-02,3.527159999999999740e-01,1.232010000000000050e-01,-2.083200000000000052e-01,4.669600000000000140e-02,3.017130000000000090e-01,1.232010000000000050e-01,1.997059999999999946e-01,3.272140000000000049e-01,3.017130000000000090e-01,9.769999999999999518e-02,-1.063130000000000047e-01,-8.081199999999999495e-02,7.219799999999999829e-02,-5.530999999999999805e-02,1.487030000000000018e-01,9.769999999999999518e-02,1.742049999999999987e-01,5.567290000000000294e-01,3.272140000000000049e-01,3.017130000000000090e-01,1.742049999999999987e-01,-2.980800000000000116e-02,2.119499999999999856e-02,2.119499999999999856e-02,7.219799999999999829e-02,-5.530999999999999805e-02,-2.980800000000000116e-02,3.527159999999999740e-01,2.252079999999999915e-01,1.997059999999999946e-01,3.272140000000000049e-01,1.232010000000000050e-01,7.219799999999999829e-02,2.507099999999999884e-01,9.769999999999999518e-02,2.119499999999999856e-02,7.219799999999999829e-02,2.762109999999999843e-01,1.232010000000000050e-01,1.232010000000000050e-01,4.669600000000000140e-02,1.997059999999999946e-01,-5.530999999999999805e-02,1.232010000000000050e-01,2.252079999999999915e-01,2.762109999999999843e-01,9.769999999999999518e-02,3.017130000000000090e-01,4.669600000000000140e-02,1.997059999999999946e-01,1.742049999999999987e-01,1.997059999999999946e-01,1.232010000000000050e-01,2.762109999999999843e-01,1.742049999999999987e-01,-2.083200000000000052e-01,-8.081199999999999495e-02,7.219799999999999829e-02,2.252079999999999915e-01,3.527159999999999740e-01,2.252079999999999915e-01,4.037189999999999945e-01,4.292210000000000192e-01,1.487030000000000018e-01,-2.980800000000000116e-02,-2.848249999999999948e-01,-2.338210000000000011e-01,3.017130000000000090e-01,2.252079999999999915e-01,3.272140000000000049e-01,2.507099999999999884e-01,-5.530999999999999805e-02,9.769999999999999518e-02,1.997059999999999946e-01,1.232010000000000050e-01,9.769999999999999518e-02,1.232010000000000050e-01,4.292210000000000192e-01,3.272140000000000049e-01,1.742049999999999987e-01,1.742049999999999987e-01,2.119499999999999856e-02,4.669600000000000140e-02,2.119499999999999856e-02,9.769999999999999518e-02,2.119499999999999856e-02,1.487030000000000018e-01,2.762109999999999843e-01,2.507099999999999884e-01,1.997059999999999946e-01,1.742049999999999987e-01,2.252079999999999915e-01,2.252079999999999915e-01,-8.081199999999999495e-02,4.669600000000000140e-02,-1.063130000000000047e-01,-2.980800000000000116e-02,2.252079999999999915e-01,3.017130000000000090e-01,3.527159999999999740e-01,2.762109999999999843e-01,1.232010000000000050e-01,3.782179999999999986e-01,1.232010000000000050e-01,-4.307000000000000065e-03,-1.318149999999999877e-01,-2.980800000000000116e-02,4.547229999999999883e-01,3.527159999999999740e-01,1.997059999999999946e-01,1.997059999999999946e-01,9.769999999999999518e-02,4.669600000000000140e-02,1.232010000000000050e-01,4.669600000000000140e-02,-2.980800000000000116e-02,1.232010000000000050e-01,3.527159999999999740e-01,3.272140000000000049e-01,1.742049999999999987e-01,2.762109999999999843e-01,1.232010000000000050e-01,-8.081199999999999495e-02,9.769999999999999518e-02,2.119499999999999856e-02,4.669600000000000140e-02,1.742049999999999987e-01,2.252079999999999915e-01,3.017130000000000090e-01,4.669600000000000140e-02,1.997059999999999946e-01,1.742049999999999987e-01,9.769999999999999518e-02,3.017130000000000090e-01,7.219799999999999829e-02,1.997059999999999946e-01,9.769999999999999518e-02,9.769999999999999518e-02,-1.318149999999999877e-01,-5.530999999999999805e-02,3.017130000000000090e-01,5.057260000000000089e-01,4.669600000000000140e-02,7.219799999999999829e-02,-4.307000000000000065e-03,7.219799999999999829e-02,-4.307000000000000065e-03,5.312280000000000335e-01,4.292210000000000192e-01,3.782179999999999986e-01,1.487030000000000018e-01,-1.318149999999999877e-01,2.119499999999999856e-02,9.769999999999999518e-02,1.232010000000000050e-01,1.742049999999999987e-01,2.119499999999999856e-02,3.272140000000000049e-01,2.762109999999999843e-01,2.507099999999999884e-01,1.232010000000000050e-01,4.669600000000000140e-02,9.769999999999999518e-02,4.669600000000000140e-02,2.119499999999999856e-02,1.232010000000000050e-01,9.769999999999999518e-02,3.017130000000000090e-01,2.252079999999999915e-01,9.769999999999999518e-02,1.487030000000000018e-01,-4.307000000000000065e-03,2.507099999999999884e-01,1.742049999999999987e-01,-8.081199999999999495e-02,-5.530999999999999805e-02,1.997059999999999946e-01,3.272140000000000049e-01,2.252079999999999915e-01,2.762109999999999843e-01,1.997059999999999946e-01,3.527159999999999740e-01,4.669600000000000140e-02,4.669600000000000140e-02,-1.318149999999999877e-01,-3.103259999999999907e-01,-5.530999999999999805e-02,4.037189999999999945e-01,2.252079999999999915e-01,3.272140000000000049e-01,3.272140000000000049e-01,3.272140000000000049e-01,-4.307000000000000065e-03,4.669600000000000140e-02,2.119499999999999856e-02,4.669600000000000140e-02,2.507099999999999884e-01,4.037189999999999945e-01,2.507099999999999884e-01,3.017130000000000090e-01,-4.307000000000000065e-03,9.769999999999999518e-02,-2.980800000000000116e-02,-2.980800000000000116e-02,1.487030000000000018e-01,7.219799999999999829e-02,1.742049999999999987e-01,1.487030000000000018e-01,1.997059999999999946e-01,2.252079999999999915e-01,1.232010000000000050e-01,2.762109999999999843e-01,2.507099999999999884e-01,4.669600000000000140e-02,-4.307000000000000065e-03,-5.530999999999999805e-02,7.219799999999999829e-02,3.527159999999999740e-01,1.997059999999999946e-01,1.997059999999999946e-01,2.507099999999999884e-01,2.252079999999999915e-01,1.487030000000000018e-01,1.487030000000000018e-01,7.219799999999999829e-02,-2.338210000000000011e-01,9.769999999999999518e-02,3.272140000000000049e-01,1.232010000000000050e-01,9.769999999999999518e-02,3.782179999999999986e-01,1.997059999999999946e-01,2.119499999999999856e-02,-5.530999999999999805e-02,1.487030000000000018e-01,1.232010000000000050e-01,7.219799999999999829e-02,4.802239999999999842e-01,1.997059999999999946e-01,3.017130000000000090e-01,1.232010000000000050e-01,1.997059999999999946e-01,4.669600000000000140e-02,9.769999999999999518e-02,7.219799999999999829e-02,-4.307000000000000065e-03,2.119499999999999856e-02,4.037189999999999945e-01,2.507099999999999884e-01,-4.307000000000000065e-03,2.762109999999999843e-01,4.669600000000000140e-02,4.669600000000000140e-02,-4.307000000000000065e-03,1.232010000000000050e-01,9.769999999999999518e-02,2.762109999999999843e-01,3.782179999999999986e-01,2.762109999999999843e-01,-4.307000000000000065e-03,9.769999999999999518e-02,7.219799999999999829e-02,2.119499999999999856e-02,2.762109999999999843e-01,1.487030000000000018e-01,1.997059999999999946e-01,1.742049999999999987e-01,3.782179999999999986e-01,-1.063130000000000047e-01,4.669600000000000140e-02,9.769999999999999518e-02,4.669600000000000140e-02,-4.307000000000000065e-03,1.997059999999999946e-01,2.252079999999999915e-01,1.742049999999999987e-01,2.507099999999999884e-01,3.017130000000000090e-01,3.272140000000000049e-01,2.252079999999999915e-01,3.017130000000000090e-01,9.769999999999999518e-02,1.742049999999999987e-01,1.742049999999999987e-01,-5.530999999999999805e-02,-5.530999999999999805e-02,-8.081199999999999495e-02,1.997059999999999946e-01,2.252079999999999915e-01,2.252079999999999915e-01,1.742049999999999987e-01,1.742049999999999987e-01,4.669600000000000140e-02,1.997059999999999946e-01,7.219799999999999829e-02,9.769999999999999518e-02,1.487030000000000018e-01,4.292210000000000192e-01,1.487030000000000018e-01,1.742049999999999987e-01,1.232010000000000050e-01,1.742049999999999987e-01,4.669600000000000140e-02,7.219799999999999829e-02,1.232010000000000050e-01,1.997059999999999946e-01,9.769999999999999518e-02,3.272140000000000049e-01,2.762109999999999843e-01,2.119499999999999856e-02,9.769999999999999518e-02,9.769999999999999518e-02,1.232010000000000050e-01,1.232010000000000050e-01,1.487030000000000018e-01,4.669600000000000140e-02,1.487030000000000018e-01,2.507099999999999884e-01,3.782179999999999986e-01,1.487030000000000018e-01,3.782179999999999986e-01,1.487030000000000018e-01,2.119499999999999856e-02,-8.081199999999999495e-02,-2.980800000000000116e-02,-8.081199999999999495e-02,-2.980800000000000116e-02,3.017130000000000090e-01,3.782179999999999986e-01,1.487030000000000018e-01,2.507099999999999884e-01,1.742049999999999987e-01,2.507099999999999884e-01,1.232010000000000050e-01,-1.063130000000000047e-01,-4.307000000000000065e-03,9.769999999999999518e-02,3.272140000000000049e-01,3.017130000000000090e-01,2.252079999999999915e-01,1.742049999999999987e-01,-4.307000000000000065e-03,7.219799999999999829e-02,1.232010000000000050e-01,7.219799999999999829e-02,7.219799999999999829e-02,2.119499999999999856e-02,3.782179999999999986e-01,1.742049999999999987e-01,3.782179999999999986e-01,1.997059999999999946e-01,2.762109999999999843e-01,2.119499999999999856e-02,9.769999999999999518e-02,-5.530999999999999805e-02,-8.081199999999999495e-02,9.769999999999999518e-02,3.017130000000000090e-01,2.252079999999999915e-01,9.769999999999999518e-02,2.252079999999999915e-01,4.669600000000000140e-02,2.252079999999999915e-01,1.742049999999999987e-01,2.252079999999999915e-01,-1.828180000000000083e-01,1.742049999999999987e-01,3.272140000000000049e-01,4.292210000000000192e-01,2.762109999999999843e-01,9.769999999999999518e-02,7.219799999999999829e-02,1.232010000000000050e-01,-5.530999999999999805e-02,7.219799999999999829e-02,-1.318149999999999877e-01,7.219799999999999829e-02,3.527159999999999740e-01,3.017130000000000090e-01,1.232010000000000050e-01,1.997059999999999946e-01,1.997059999999999946e-01,1.487030000000000018e-01,1.232010000000000050e-01,1.232010000000000050e-01,-8.081199999999999495e-02,1.742049999999999987e-01,1.742049999999999987e-01,2.252079999999999915e-01,9.769999999999999518e-02,2.252079999999999915e-01,4.669600000000000140e-02,1.742049999999999987e-01,1.742049999999999987e-01,9.769999999999999518e-02,4.669600000000000140e-02,2.507099999999999884e-01,3.272140000000000049e-01,2.762109999999999843e-01,9.769999999999999518e-02,9.769999999999999518e-02,2.119499999999999856e-02,2.119499999999999856e-02,-2.980800000000000116e-02,3.272140000000000049e-01,1.997059999999999946e-01,1.742049999999999987e-01,2.252079999999999915e-01,2.252079999999999915e-01,9.769999999999999518e-02,9.769999999999999518e-02,1.232010000000000050e-01,1.997059999999999946e-01,-4.307000000000000065e-03,9.769999999999999518e-02,9.769999999999999518e-02,1.232010000000000050e-01,2.762109999999999843e-01,1.997059999999999946e-01,1.742049999999999987e-01,1.742049999999999987e-01,2.252079999999999915e-01,2.119499999999999856e-02,7.219799999999999829e-02,-2.980800000000000116e-02,2.119499999999999856e-02,-4.307000000000000065e-03,3.272140000000000049e-01,1.997059999999999946e-01,2.252079999999999915e-01,1.997059999999999946e-01,3.782179999999999986e-01,7.219799999999999829e-02,2.507099999999999884e-01,2.119499999999999856e-02,4.669600000000000140e-02,-8.081199999999999495e-02,3.782179999999999986e-01,-4.307000000000000065e-03,1.742049999999999987e-01,2.762109999999999843e-01,2.252079999999999915e-01,2.507099999999999884e-01,-2.980800000000000116e-02,-4.307000000000000065e-03,2.119499999999999856e-02,2.252079999999999915e-01,1.742049999999999987e-01,1.487030000000000018e-01,3.017130000000000090e-01,1.232010000000000050e-01,7.219799999999999829e-02,2.119499999999999856e-02,-2.980800000000000116e-02,1.232010000000000050e-01,9.769999999999999518e-02,3.527159999999999740e-01,4.547229999999999883e-01,2.762109999999999843e-01,2.507099999999999884e-01,2.252079999999999915e-01,1.487030000000000018e-01,4.669600000000000140e-02,-1.573170000000000124e-01,-1.063130000000000047e-01,-1.828180000000000083e-01,-2.980800000000000116e-02,1.742049999999999987e-01,3.782179999999999986e-01,1.232010000000000050e-01,2.762109999999999843e-01,7.219799999999999829e-02,3.272140000000000049e-01,3.272140000000000049e-01,3.017130000000000090e-01,-4.307000000000000065e-03,9.769999999999999518e-02,4.669600000000000140e-02,2.252079999999999915e-01,7.219799999999999829e-02,3.782179999999999986e-01,1.997059999999999946e-01,4.669600000000000140e-02,-1.318149999999999877e-01,-2.980800000000000116e-02,-8.081199999999999495e-02,1.232010000000000050e-01,3.527159999999999740e-01,3.272140000000000049e-01,3.017130000000000090e-01,1.997059999999999946e-01,3.272140000000000049e-01,4.669600000000000140e-02,1.232010000000000050e-01,7.219799999999999829e-02,-8.081199999999999495e-02,1.997059999999999946e-01,4.292210000000000192e-01,4.669600000000000140e-02,7.219799999999999829e-02,-5.530999999999999805e-02,3.272140000000000049e-01,1.487030000000000018e-01,1.232010000000000050e-01,-5.530999999999999805e-02,1.232010000000000050e-01,4.669600000000000140e-02,4.037189999999999945e-01,2.762109999999999843e-01,2.507099999999999884e-01,1.742049999999999987e-01,1.232010000000000050e-01,4.669600000000000140e-02,4.669600000000000140e-02,-4.307000000000000065e-03,-5.530999999999999805e-02,2.252079999999999915e-01,3.527159999999999740e-01,2.762109999999999843e-01,2.762109999999999843e-01,1.997059999999999946e-01,1.997059999999999946e-01,-1.063130000000000047e-01,2.119499999999999856e-02,4.669600000000000140e-02,-8.081199999999999495e-02,9.769999999999999518e-02,4.547229999999999883e-01,2.507099999999999884e-01,3.017130000000000090e-01,1.232010000000000050e-01,9.769999999999999518e-02,-4.307000000000000065e-03,7.219799999999999829e-02,7.219799999999999829e-02,9.769999999999999518e-02,3.017130000000000090e-01,3.782179999999999986e-01,1.232010000000000050e-01,7.219799999999999829e-02,7.219799999999999829e-02,9.769999999999999518e-02,2.507099999999999884e-01,1.742049999999999987e-01,1.487030000000000018e-01,2.119499999999999856e-02,-2.980800000000000116e-02,2.762109999999999843e-01,3.272140000000000049e-01,2.252079999999999915e-01,1.487030000000000018e-01,4.669600000000000140e-02,-8.081199999999999495e-02,1.997059999999999946e-01,4.669600000000000140e-02,-2.980800000000000116e-02,9.769999999999999518e-02,3.272140000000000049e-01,5.057260000000000089e-01,1.997059999999999946e-01,2.507099999999999884e-01,1.232010000000000050e-01,2.119499999999999856e-02,1.997059999999999946e-01,-5.530999999999999805e-02,4.669600000000000140e-02,7.219799999999999829e-02,5.312280000000000335e-01,2.252079999999999915e-01,2.762109999999999843e-01,9.769999999999999518e-02,-2.980800000000000116e-02,-5.530999999999999805e-02,-4.307000000000000065e-03,-8.081199999999999495e-02,-8.081199999999999495e-02,1.742049999999999987e-01,5.312280000000000335e-01,4.547229999999999883e-01,3.527159999999999740e-01,3.782179999999999986e-01,1.742049999999999987e-01,-1.063130000000000047e-01,-1.063130000000000047e-01,-2.980800000000000116e-02,-8.081199999999999495e-02,2.762109999999999843e-01,3.527159999999999740e-01,1.742049999999999987e-01,1.742049999999999987e-01,1.232010000000000050e-01,2.762109999999999843e-01,4.669600000000000140e-02,7.219799999999999829e-02,-1.318149999999999877e-01,-1.063130000000000047e-01,2.252079999999999915e-01,4.037189999999999945e-01,3.272140000000000049e-01,4.292210000000000192e-01,3.272140000000000049e-01,4.669600000000000140e-02,-2.980800000000000116e-02,-5.530999999999999805e-02,-1.063130000000000047e-01,-1.318149999999999877e-01,1.742049999999999987e-01,3.017130000000000090e-01,3.272140000000000049e-01,2.762109999999999843e-01,4.669600000000000140e-02,9.769999999999999518e-02,1.487030000000000018e-01,1.487030000000000018e-01,1.232010000000000050e-01,-4.307000000000000065e-03,2.119499999999999856e-02,2.252079999999999915e-01,2.762109999999999843e-01,2.507099999999999884e-01,2.252079999999999915e-01,1.742049999999999987e-01,1.742049999999999987e-01,2.119499999999999856e-02,7.219799999999999829e-02,2.119499999999999856e-02,1.742049999999999987e-01,3.017130000000000090e-01,1.232010000000000050e-01,2.252079999999999915e-01,7.219799999999999829e-02,9.769999999999999518e-02,9.769999999999999518e-02,1.742049999999999987e-01,1.487030000000000018e-01,-2.980800000000000116e-02,1.232010000000000050e-01,2.252079999999999915e-01,3.017130000000000090e-01,7.219799999999999829e-02,1.997059999999999946e-01,7.219799999999999829e-02,1.997059999999999946e-01,2.119499999999999856e-02,-2.980800000000000116e-02,9.769999999999999518e-02,3.272140000000000049e-01,4.292210000000000192e-01,2.507099999999999884e-01,1.487030000000000018e-01,-2.980800000000000116e-02,2.119499999999999856e-02,4.669600000000000140e-02,9.769999999999999518e-02,9.769999999999999518e-02,2.119499999999999856e-02,1.742049999999999987e-01,2.252079999999999915e-01,2.252079999999999915e-01,1.487030000000000018e-01,1.997059999999999946e-01,3.017130000000000090e-01,1.997059999999999946e-01,2.252079999999999915e-01,-1.828180000000000083e-01,-8.081199999999999495e-02,-1.318149999999999877e-01,2.762109999999999843e-01,1.487030000000000018e-01,3.017130000000000090e-01,1.232010000000000050e-01,3.782179999999999986e-01,7.219799999999999829e-02,9.769999999999999518e-02,-8.081199999999999495e-02,9.769999999999999518e-02,1.487030000000000018e-01,4.547229999999999883e-01,2.507099999999999884e-01,1.487030000000000018e-01,1.232010000000000050e-01,1.742049999999999987e-01,-4.307000000000000065e-03,7.219799999999999829e-02,1.232010000000000050e-01,2.119499999999999856e-02,1.487030000000000018e-01,3.272140000000000049e-01,2.762109999999999843e-01,1.742049999999999987e-01,1.232010000000000050e-01,7.219799999999999829e-02,7.219799999999999829e-02,7.219799999999999829e-02,1.487030000000000018e-01,-5.530999999999999805e-02,2.252079999999999915e-01,2.507099999999999884e-01,1.742049999999999987e-01,2.762109999999999843e-01,4.037189999999999945e-01,2.252079999999999915e-01,7.219799999999999829e-02,4.669600000000000140e-02,-4.307000000000000065e-03,-5.530999999999999805e-02,2.119499999999999856e-02,3.782179999999999986e-01,-4.307000000000000065e-03,2.252079999999999915e-01,1.232010000000000050e-01,1.997059999999999946e-01,1.487030000000000018e-01,-2.980800000000000116e-02,1.742049999999999987e-01,1.232010000000000050e-01,4.669600000000000140e-02,2.762109999999999843e-01,1.487030000000000018e-01,7.219799999999999829e-02,3.782179999999999986e-01,1.487030000000000018e-01,-5.530999999999999805e-02,9.769999999999999518e-02,-2.980800000000000116e-02,-4.307000000000000065e-03,1.487030000000000018e-01,4.292210000000000192e-01,3.527159999999999740e-01,1.742049999999999987e-01,2.119499999999999856e-02,1.487030000000000018e-01,-4.307000000000000065e-03,4.669600000000000140e-02,2.119499999999999856e-02,-8.081199999999999495e-02,2.507099999999999884e-01,3.527159999999999740e-01,4.037189999999999945e-01,3.782179999999999986e-01,7.219799999999999829e-02,-4.307000000000000065e-03,-1.318149999999999877e-01,-8.081199999999999495e-02,1.487030000000000018e-01,-5.530999999999999805e-02,1.487030000000000018e-01,3.272140000000000049e-01,2.507099999999999884e-01,2.507099999999999884e-01,1.997059999999999946e-01,1.232010000000000050e-01,1.997059999999999946e-01,7.219799999999999829e-02,-2.980800000000000116e-02,1.232010000000000050e-01,1.997059999999999946e-01,3.272140000000000049e-01,3.017130000000000090e-01,9.769999999999999518e-02,9.769999999999999518e-02,-8.081199999999999495e-02,2.119499999999999856e-02,-4.307000000000000065e-03,-5.530999999999999805e-02,7.219799999999999829e-02,1.487030000000000018e-01,5.057260000000000089e-01,2.507099999999999884e-01,2.252079999999999915e-01,1.487030000000000018e-01,1.742049999999999987e-01,2.252079999999999915e-01,2.252079999999999915e-01,-1.063130000000000047e-01,2.119499999999999856e-02,1.487030000000000018e-01,3.272140000000000049e-01,4.037189999999999945e-01,9.769999999999999518e-02,2.119499999999999856e-02,4.669600000000000140e-02,2.119499999999999856e-02,4.669600000000000140e-02,-1.828180000000000083e-01,1.232010000000000050e-01,1.487030000000000018e-01,3.272140000000000049e-01,4.547229999999999883e-01,1.997059999999999946e-01,3.017130000000000090e-01,1.742049999999999987e-01,4.669600000000000140e-02,7.219799999999999829e-02,2.119499999999999856e-02,4.669600000000000140e-02,1.232010000000000050e-01,1.487030000000000018e-01,1.232010000000000050e-01,2.252079999999999915e-01,4.669600000000000140e-02,1.232010000000000050e-01,1.232010000000000050e-01,7.219799999999999829e-02,4.669600000000000140e-02,1.997059999999999946e-01,3.272140000000000049e-01,4.547229999999999883e-01,4.547229999999999883e-01,3.017130000000000090e-01,9.769999999999999518e-02,-8.081199999999999495e-02,-1.828180000000000083e-01,-5.530999999999999805e-02,-8.081199999999999495e-02,1.232010000000000050e-01,2.252079999999999915e-01,2.762109999999999843e-01,4.292210000000000192e-01,2.252079999999999915e-01,1.487030000000000018e-01,1.742049999999999987e-01,1.232010000000000050e-01,2.252079999999999915e-01,-8.081199999999999495e-02,2.119499999999999856e-02,2.507099999999999884e-01,3.527159999999999740e-01,2.252079999999999915e-01,7.219799999999999829e-02,2.119499999999999856e-02,9.769999999999999518e-02,-4.307000000000000065e-03,1.997059999999999946e-01,1.232010000000000050e-01,9.769999999999999518e-02,1.232010000000000050e-01,1.232010000000000050e-01,2.762109999999999843e-01,4.292210000000000192e-01,3.272140000000000049e-01,1.742049999999999987e-01,-2.338210000000000011e-01,-2.980800000000000116e-02,-2.980800000000000116e-02,7.219799999999999829e-02,1.997059999999999946e-01,3.272140000000000049e-01,1.742049999999999987e-01,3.782179999999999986e-01,1.997059999999999946e-01,1.232010000000000050e-01,1.487030000000000018e-01,4.669600000000000140e-02,-2.980800000000000116e-02,-1.318149999999999877e-01,3.272140000000000049e-01,3.527159999999999740e-01,2.762109999999999843e-01,1.997059999999999946e-01,2.119499999999999856e-02,1.232010000000000050e-01,-4.307000000000000065e-03,4.669600000000000140e-02,-4.307000000000000065e-03,2.119499999999999856e-02,3.272140000000000049e-01,2.507099999999999884e-01,3.527159999999999740e-01,1.997059999999999946e-01,3.782179999999999986e-01,1.232010000000000050e-01,-5.530999999999999805e-02,-2.980800000000000116e-02,-1.063130000000000047e-01,1.487030000000000018e-01,1.742049999999999987e-01,3.527159999999999740e-01,1.487030000000000018e-01,2.507099999999999884e-01,1.742049999999999987e-01,9.769999999999999518e-02,-4.307000000000000065e-03,7.219799999999999829e-02,7.219799999999999829e-02,-2.980800000000000116e-02,2.252079999999999915e-01,3.272140000000000049e-01,1.742049999999999987e-01,1.997059999999999946e-01,1.742049999999999987e-01,1.487030000000000018e-01,-8.081199999999999495e-02,-1.318149999999999877e-01,1.742049999999999987e-01,4.669600000000000140e-02,2.507099999999999884e-01,2.252079999999999915e-01,4.037189999999999945e-01,3.017130000000000090e-01,2.252079999999999915e-01,-8.081199999999999495e-02,-4.307000000000000065e-03,-2.980800000000000116e-02,-2.980800000000000116e-02,2.119499999999999856e-02,3.017130000000000090e-01,4.292210000000000192e-01,2.762109999999999843e-01,1.997059999999999946e-01,1.487030000000000018e-01,-2.980800000000000116e-02,-8.081199999999999495e-02,1.487030000000000018e-01,4.669600000000000140e-02,4.669600000000000140e-02,2.252079999999999915e-01,3.272140000000000049e-01,3.017130000000000090e-01,3.017130000000000090e-01,9.769999999999999518e-02,-2.338210000000000011e-01,-2.980800000000000116e-02,7.219799999999999829e-02,1.232010000000000050e-01,1.487030000000000018e-01,3.017130000000000090e-01,3.527159999999999740e-01,4.292210000000000192e-01,2.507099999999999884e-01,-5.530999999999999805e-02,-1.063130000000000047e-01,-2.980800000000000116e-02,-2.980800000000000116e-02,2.119499999999999856e-02,7.219799999999999829e-02,2.762109999999999843e-01,4.802239999999999842e-01,2.762109999999999843e-01,2.507099999999999884e-01,4.292210000000000192e-01,2.252079999999999915e-01,-1.573170000000000124e-01,-1.573170000000000124e-01,-8.081199999999999495e-02,2.119499999999999856e-02,1.997059999999999946e-01,1.997059999999999946e-01,3.272140000000000049e-01,3.272140000000000049e-01,9.769999999999999518e-02,1.232010000000000050e-01,9.769999999999999518e-02,-5.530999999999999805e-02,9.769999999999999518e-02,1.742049999999999987e-01,1.742049999999999987e-01,1.997059999999999946e-01,3.017130000000000090e-01,3.017130000000000090e-01,1.742049999999999987e-01,9.769999999999999518e-02,-5.530999999999999805e-02,-8.081199999999999495e-02,-2.980800000000000116e-02,1.487030000000000018e-01,3.017130000000000090e-01,3.782179999999999986e-01,1.997059999999999946e-01,1.487030000000000018e-01,9.769999999999999518e-02,9.769999999999999518e-02,9.769999999999999518e-02,-2.980800000000000116e-02,1.232010000000000050e-01,9.769999999999999518e-02,2.507099999999999884e-01,1.997059999999999946e-01,1.997059999999999946e-01,1.742049999999999987e-01,1.487030000000000018e-01,7.219799999999999829e-02,-8.081199999999999495e-02,-5.530999999999999805e-02,-2.980800000000000116e-02,-4.307000000000000065e-03,3.272140000000000049e-01,4.802239999999999842e-01,3.272140000000000049e-01,3.017130000000000090e-01,1.232010000000000050e-01,1.997059999999999946e-01,2.119499999999999856e-02,2.119499999999999856e-02,-4.307000000000000065e-03,-4.307000000000000065e-03,1.487030000000000018e-01,1.487030000000000018e-01,3.272140000000000049e-01,2.252079999999999915e-01,1.232010000000000050e-01,1.232010000000000050e-01,2.119499999999999856e-02,2.119499999999999856e-02,1.232010000000000050e-01,1.232010000000000050e-01,3.272140000000000049e-01,4.292210000000000192e-01,3.017130000000000090e-01,1.232010000000000050e-01,2.507099999999999884e-01,-8.081199999999999495e-02,7.219799999999999829e-02,-2.980800000000000116e-02,-2.980800000000000116e-02,2.119499999999999856e-02,2.252079999999999915e-01,1.742049999999999987e-01,2.252079999999999915e-01,2.252079999999999915e-01,1.487030000000000018e-01,9.769999999999999518e-02,2.252079999999999915e-01,9.769999999999999518e-02,1.997059999999999946e-01,7.219799999999999829e-02,1.742049999999999987e-01,2.762109999999999843e-01,1.742049999999999987e-01,2.119499999999999856e-02,1.997059999999999946e-01,4.037189999999999945e-01,2.119499999999999856e-02,4.669600000000000140e-02,-8.081199999999999495e-02,-8.081199999999999495e-02,2.119499999999999856e-02,2.507099999999999884e-01,2.762109999999999843e-01,3.017130000000000090e-01,1.997059999999999946e-01,9.769999999999999518e-02,1.232010000000000050e-01,-4.307000000000000065e-03,-8.081199999999999495e-02,4.669600000000000140e-02,3.017130000000000090e-01,4.802239999999999842e-01,2.252079999999999915e-01,2.252079999999999915e-01,7.219799999999999829e-02,7.219799999999999829e-02,-5.530999999999999805e-02,7.219799999999999829e-02,9.769999999999999518e-02,2.252079999999999915e-01,3.017130000000000090e-01,2.762109999999999843e-01,3.272140000000000049e-01,-4.307000000000000065e-03,9.769999999999999518e-02,-5.530999999999999805e-02,7.219799999999999829e-02,4.292210000000000192e-01,2.119499999999999856e-02,4.669600000000000140e-02,7.219799999999999829e-02,2.507099999999999884e-01,2.762109999999999843e-01,3.272140000000000049e-01,1.232010000000000050e-01,9.769999999999999518e-02,4.669600000000000140e-02,2.119499999999999856e-02,-1.318149999999999877e-01,2.119499999999999856e-02,1.232010000000000050e-01,3.527159999999999740e-01,4.802239999999999842e-01,3.272140000000000049e-01,9.769999999999999518e-02,1.232010000000000050e-01,1.742049999999999987e-01,-1.063130000000000047e-01,2.119499999999999856e-02,-4.307000000000000065e-03,2.507099999999999884e-01,2.252079999999999915e-01,7.219799999999999829e-02,2.762109999999999843e-01,1.487030000000000018e-01,1.232010000000000050e-01,-4.307000000000000065e-03,7.219799999999999829e-02,1.487030000000000018e-01,7.219799999999999829e-02,3.527159999999999740e-01,2.507099999999999884e-01,2.119499999999999856e-02,1.232010000000000050e-01,-4.307000000000000065e-03,2.507099999999999884e-01,2.119499999999999856e-02,2.119499999999999856e-02,2.119499999999999856e-02,2.119499999999999856e-02,2.252079999999999915e-01,3.272140000000000049e-01,2.762109999999999843e-01,2.507099999999999884e-01,4.669600000000000140e-02,1.742049999999999987e-01,4.669600000000000140e-02,-4.307000000000000065e-03,4.669600000000000140e-02,1.232010000000000050e-01,3.527159999999999740e-01,4.547229999999999883e-01,2.507099999999999884e-01,1.232010000000000050e-01,2.119499999999999856e-02,-4.307000000000000065e-03,2.119499999999999856e-02,7.219799999999999829e-02,9.769999999999999518e-02,1.487030000000000018e-01,2.507099999999999884e-01,3.272140000000000049e-01,1.997059999999999946e-01,1.232010000000000050e-01,4.669600000000000140e-02,7.219799999999999829e-02,-2.980800000000000116e-02,-1.063130000000000047e-01,-2.980800000000000116e-02,1.742049999999999987e-01,4.292210000000000192e-01,4.802239999999999842e-01,4.292210000000000192e-01,3.272140000000000049e-01,1.232010000000000050e-01,7.219799999999999829e-02,-1.063130000000000047e-01,-1.063130000000000047e-01,-2.980800000000000116e-02,9.769999999999999518e-02,3.527159999999999740e-01,4.037189999999999945e-01,3.017130000000000090e-01,2.507099999999999884e-01,-2.980800000000000116e-02,2.119499999999999856e-02,-8.081199999999999495e-02,-2.980800000000000116e-02,-5.530999999999999805e-02,1.487030000000000018e-01,3.782179999999999986e-01,2.507099999999999884e-01,3.782179999999999986e-01,9.769999999999999518e-02,2.252079999999999915e-01,2.119499999999999856e-02,2.119499999999999856e-02,-4.307000000000000065e-03,9.769999999999999518e-02,2.507099999999999884e-01,2.762109999999999843e-01,3.017130000000000090e-01,1.232010000000000050e-01,7.219799999999999829e-02,1.232010000000000050e-01,-5.530999999999999805e-02,2.119499999999999856e-02,-1.318149999999999877e-01,1.232010000000000050e-01,2.252079999999999915e-01,4.802239999999999842e-01,1.997059999999999946e-01,2.252079999999999915e-01,2.252079999999999915e-01,1.997059999999999946e-01,-8.081199999999999495e-02,-5.530999999999999805e-02,-4.307000000000000065e-03,-2.980800000000000116e-02,2.252079999999999915e-01,1.997059999999999946e-01,2.762109999999999843e-01,3.527159999999999740e-01,1.487030000000000018e-01,1.232010000000000050e-01,9.769999999999999518e-02,4.669600000000000140e-02,2.119499999999999856e-02,-5.530999999999999805e-02,7.219799999999999829e-02,3.272140000000000049e-01,3.272140000000000049e-01,4.037189999999999945e-01,2.507099999999999884e-01,1.232010000000000050e-01,2.119499999999999856e-02,-2.083200000000000052e-01,-5.530999999999999805e-02,-5.530999999999999805e-02,2.762109999999999843e-01,4.037189999999999945e-01,3.017130000000000090e-01,3.782179999999999986e-01,1.232010000000000050e-01,9.769999999999999518e-02,4.669600000000000140e-02,-4.307000000000000065e-03,-1.063130000000000047e-01,-8.081199999999999495e-02,4.669600000000000140e-02,3.017130000000000090e-01,2.762109999999999843e-01,3.527159999999999740e-01,3.017130000000000090e-01,7.219799999999999829e-02,2.119499999999999856e-02,-1.063130000000000047e-01,7.219799999999999829e-02,2.507099999999999884e-01,1.487030000000000018e-01,4.292210000000000192e-01,1.742049999999999987e-01,4.802239999999999842e-01,4.292210000000000192e-01,4.669600000000000140e-02,-2.980800000000000116e-02,-1.573170000000000124e-01,-2.083200000000000052e-01,-2.980800000000000116e-02,9.769999999999999518e-02,4.802239999999999842e-01,3.017130000000000090e-01,3.527159999999999740e-01,2.252079999999999915e-01,4.669600000000000140e-02,9.769999999999999518e-02,1.232010000000000050e-01,7.219799999999999829e-02,-4.307000000000000065e-03,1.232010000000000050e-01,1.997059999999999946e-01,3.017130000000000090e-01,2.762109999999999843e-01,1.232010000000000050e-01,1.232010000000000050e-01,-4.307000000000000065e-03,7.219799999999999829e-02,-2.980800000000000116e-02,4.669600000000000140e-02,2.507099999999999884e-01,4.292210000000000192e-01,3.782179999999999986e-01,1.232010000000000050e-01,9.769999999999999518e-02,-4.307000000000000065e-03,1.232010000000000050e-01,1.232010000000000050e-01,-1.318149999999999877e-01,-1.063130000000000047e-01,1.232010000000000050e-01,3.527159999999999740e-01,4.802239999999999842e-01,3.017130000000000090e-01,2.762109999999999843e-01,1.742049999999999987e-01,2.252079999999999915e-01,4.669600000000000140e-02,-1.573170000000000124e-01,-8.081199999999999495e-02,-1.318149999999999877e-01,2.252079999999999915e-01,4.292210000000000192e-01,4.037189999999999945e-01,3.272140000000000049e-01,7.219799999999999829e-02,2.119499999999999856e-02,-8.081199999999999495e-02,-5.530999999999999805e-02,4.669600000000000140e-02,1.742049999999999987e-01,3.527159999999999740e-01,2.252079999999999915e-01,3.272140000000000049e-01,1.997059999999999946e-01,7.219799999999999829e-02,9.769999999999999518e-02,-4.307000000000000065e-03,7.219799999999999829e-02,-5.530999999999999805e-02,2.507099999999999884e-01,2.507099999999999884e-01,1.997059999999999946e-01,1.232010000000000050e-01,1.487030000000000018e-01,1.487030000000000018e-01,2.119499999999999856e-02,2.119499999999999856e-02,4.669600000000000140e-02,-4.307000000000000065e-03,3.272140000000000049e-01,2.762109999999999843e-01,1.997059999999999946e-01,1.232010000000000050e-01,9.769999999999999518e-02,1.487030000000000018e-01,1.742049999999999987e-01,-4.307000000000000065e-03,-4.307000000000000065e-03,7.219799999999999829e-02,9.769999999999999518e-02,4.292210000000000192e-01,2.252079999999999915e-01,4.547229999999999883e-01,2.252079999999999915e-01,7.219799999999999829e-02,-1.573170000000000124e-01,-1.828180000000000083e-01,-1.318149999999999877e-01,4.669600000000000140e-02,1.997059999999999946e-01,5.312280000000000335e-01,3.782179999999999986e-01,3.272140000000000049e-01,1.487030000000000018e-01,2.119499999999999856e-02,-1.318149999999999877e-01,-5.530999999999999805e-02,-2.980800000000000116e-02,1.997059999999999946e-01,3.782179999999999986e-01,5.057260000000000089e-01,4.802239999999999842e-01,1.742049999999999987e-01,2.507099999999999884e-01,-5.530999999999999805e-02,-8.081199999999999495e-02,-1.828180000000000083e-01,-8.081199999999999495e-02,4.669600000000000140e-02,9.769999999999999518e-02,4.037189999999999945e-01,2.507099999999999884e-01,3.527159999999999740e-01,1.742049999999999987e-01,1.997059999999999946e-01,1.232010000000000050e-01,7.219799999999999829e-02,-8.081199999999999495e-02,2.119499999999999856e-02,2.507099999999999884e-01,4.802239999999999842e-01,3.782179999999999986e-01,1.232010000000000050e-01,-4.307000000000000065e-03,-5.530999999999999805e-02,-8.081199999999999495e-02,-1.063130000000000047e-01,-5.530999999999999805e-02,2.507099999999999884e-01,4.292210000000000192e-01,4.802239999999999842e-01,3.782179999999999986e-01,1.997059999999999946e-01,-1.318149999999999877e-01,-1.063130000000000047e-01,-4.307000000000000065e-03,1.232010000000000050e-01,1.232010000000000050e-01,1.487030000000000018e-01,9.769999999999999518e-02,4.292210000000000192e-01,2.252079999999999915e-01,1.487030000000000018e-01,1.742049999999999987e-01,7.219799999999999829e-02,1.232010000000000050e-01,2.119499999999999856e-02,9.769999999999999518e-02,-4.307000000000000065e-03,7.219799999999999829e-02,3.017130000000000090e-01,4.037189999999999945e-01,2.252079999999999915e-01,4.669600000000000140e-02,1.487030000000000018e-01,1.232010000000000050e-01,2.119499999999999856e-02,-5.530999999999999805e-02,7.219799999999999829e-02,4.669600000000000140e-02,6.587359999999999882e-01,5.057260000000000089e-01,4.037189999999999945e-01,1.232010000000000050e-01,-2.083200000000000052e-01,-5.530999999999999805e-02,-1.573170000000000124e-01,-1.318149999999999877e-01,1.232010000000000050e-01,2.252079999999999915e-01,4.802239999999999842e-01,2.507099999999999884e-01,4.037189999999999945e-01,2.762109999999999843e-01,1.742049999999999987e-01,2.119499999999999856e-02,2.119499999999999856e-02,-1.063130000000000047e-01,-8.081199999999999495e-02,7.219799999999999829e-02,3.527159999999999740e-01,3.272140000000000049e-01,4.547229999999999883e-01,3.017130000000000090e-01,1.997059999999999946e-01,4.669600000000000140e-02,-1.318149999999999877e-01,-2.083200000000000052e-01,-1.063130000000000047e-01,1.487030000000000018e-01,1.997059999999999946e-01,3.272140000000000049e-01,1.742049999999999987e-01,1.997059999999999946e-01,1.487030000000000018e-01,2.119499999999999856e-02,4.669600000000000140e-02,4.669600000000000140e-02,4.669600000000000140e-02,1.742049999999999987e-01,5.822310000000000541e-01,3.272140000000000049e-01,1.997059999999999946e-01,-8.081199999999999495e-02,-8.081199999999999495e-02,-1.318149999999999877e-01,1.232010000000000050e-01,-1.063130000000000047e-01,1.742049999999999987e-01,3.017130000000000090e-01,5.567290000000000294e-01,1.742049999999999987e-01,3.017130000000000090e-01,1.487030000000000018e-01,7.219799999999999829e-02,-8.081199999999999495e-02,2.119499999999999856e-02,-4.307000000000000065e-03,2.119499999999999856e-02,1.487030000000000018e-01,4.802239999999999842e-01,3.017130000000000090e-01,3.527159999999999740e-01,2.252079999999999915e-01,1.742049999999999987e-01,7.219799999999999829e-02,-4.307000000000000065e-03,-2.338210000000000011e-01,-1.063130000000000047e-01,2.119499999999999856e-02,3.272140000000000049e-01,3.527159999999999740e-01,3.527159999999999740e-01,2.252079999999999915e-01,1.487030000000000018e-01,4.669600000000000140e-02,-2.980800000000000116e-02,-2.980800000000000116e-02,4.669600000000000140e-02,2.507099999999999884e-01,4.037189999999999945e-01,3.527159999999999740e-01,1.997059999999999946e-01,1.742049999999999987e-01,1.232010000000000050e-01,2.119499999999999856e-02,2.119499999999999856e-02,-5.530999999999999805e-02,7.219799999999999829e-02,1.232010000000000050e-01,3.527159999999999740e-01,1.997059999999999946e-01,3.017130000000000090e-01,1.232010000000000050e-01,7.219799999999999829e-02,4.669600000000000140e-02,-5.530999999999999805e-02,4.669600000000000140e-02,9.769999999999999518e-02,2.762109999999999843e-01,5.057260000000000089e-01,4.037189999999999945e-01,3.017130000000000090e-01,1.232010000000000050e-01,4.669600000000000140e-02,2.119499999999999856e-02,-1.573170000000000124e-01,2.119499999999999856e-02,-1.063130000000000047e-01,1.487030000000000018e-01,3.272140000000000049e-01,3.782179999999999986e-01,3.272140000000000049e-01,2.252079999999999915e-01,1.232010000000000050e-01,-5.530999999999999805e-02,-8.081199999999999495e-02,1.487030000000000018e-01,1.742049999999999987e-01,1.742049999999999987e-01,2.507099999999999884e-01,1.997059999999999946e-01,1.487030000000000018e-01,1.742049999999999987e-01,1.487030000000000018e-01,4.669600000000000140e-02,1.487030000000000018e-01,1.232010000000000050e-01,9.769999999999999518e-02,2.252079999999999915e-01,3.272140000000000049e-01,2.507099999999999884e-01,1.742049999999999987e-01,2.252079999999999915e-01,9.769999999999999518e-02,-1.573170000000000124e-01,2.119499999999999856e-02,-1.063130000000000047e-01,1.232010000000000050e-01,3.272140000000000049e-01,2.762109999999999843e-01,3.782179999999999986e-01,1.997059999999999946e-01,7.219799999999999829e-02,-2.980800000000000116e-02,1.232010000000000050e-01,2.119499999999999856e-02,4.669600000000000140e-02,-2.980800000000000116e-02,1.997059999999999946e-01,2.762109999999999843e-01,4.292210000000000192e-01,3.272140000000000049e-01,3.527159999999999740e-01,7.219799999999999829e-02,-8.081199999999999495e-02,-1.318149999999999877e-01,-2.980800000000000116e-02,-8.081199999999999495e-02,2.507099999999999884e-01,3.527159999999999740e-01,3.017130000000000090e-01,2.252079999999999915e-01,2.252079999999999915e-01,7.219799999999999829e-02,9.769999999999999518e-02,2.119499999999999856e-02,4.669600000000000140e-02,7.219799999999999829e-02,2.507099999999999884e-01,3.272140000000000049e-01,2.762109999999999843e-01,1.997059999999999946e-01,1.997059999999999946e-01,2.119499999999999856e-02,7.219799999999999829e-02,2.119499999999999856e-02,2.119499999999999856e-02,-1.828180000000000083e-01,1.742049999999999987e-01,4.037189999999999945e-01,4.802239999999999842e-01,2.762109999999999843e-01,1.232010000000000050e-01,-2.980800000000000116e-02,-1.063130000000000047e-01,2.252079999999999915e-01,7.219799999999999829e-02,2.252079999999999915e-01,2.507099999999999884e-01,3.782179999999999986e-01,1.487030000000000018e-01,4.669600000000000140e-02,1.997059999999999946e-01,-2.980800000000000116e-02,1.742049999999999987e-01,1.232010000000000050e-01,2.119499999999999856e-02,1.232010000000000050e-01,1.232010000000000050e-01,3.527159999999999740e-01,2.507099999999999884e-01,1.487030000000000018e-01,9.769999999999999518e-02,1.742049999999999987e-01,-4.307000000000000065e-03,9.769999999999999518e-02,1.232010000000000050e-01,4.669600000000000140e-02,2.252079999999999915e-01,5.312280000000000335e-01,1.487030000000000018e-01,1.232010000000000050e-01,2.252079999999999915e-01,-8.081199999999999495e-02,2.119499999999999856e-02,1.487030000000000018e-01,-4.307000000000000065e-03,9.769999999999999518e-02,7.219799999999999829e-02,3.017130000000000090e-01,3.017130000000000090e-01,3.782179999999999986e-01,1.487030000000000018e-01,2.762109999999999843e-01,-5.530999999999999805e-02,-1.063130000000000047e-01,-8.081199999999999495e-02,-1.063130000000000047e-01,1.232010000000000050e-01,4.037189999999999945e-01,3.017130000000000090e-01,3.272140000000000049e-01,3.272140000000000049e-01,2.252079999999999915e-01,-4.307000000000000065e-03,-8.081199999999999495e-02,-1.318149999999999877e-01,1.742049999999999987e-01,2.252079999999999915e-01,2.252079999999999915e-01,9.769999999999999518e-02,3.272140000000000049e-01,2.762109999999999843e-01,1.487030000000000018e-01,2.762109999999999843e-01,-2.980800000000000116e-02,-5.530999999999999805e-02,-8.081199999999999495e-02,-2.980800000000000116e-02,2.252079999999999915e-01,2.762109999999999843e-01,2.507099999999999884e-01,1.487030000000000018e-01,2.252079999999999915e-01,2.119499999999999856e-02,9.769999999999999518e-02,-1.828180000000000083e-01,7.219799999999999829e-02,1.742049999999999987e-01,4.037189999999999945e-01,3.017130000000000090e-01,2.252079999999999915e-01,2.252079999999999915e-01,-4.307000000000000065e-03,1.232010000000000050e-01,-5.530999999999999805e-02,7.219799999999999829e-02,2.119499999999999856e-02,2.762109999999999843e-01,3.782179999999999986e-01,4.292210000000000192e-01,2.252079999999999915e-01,1.742049999999999987e-01,-2.980800000000000116e-02,4.669600000000000140e-02,-1.063130000000000047e-01,7.219799999999999829e-02,2.119499999999999856e-02,1.997059999999999946e-01,2.507099999999999884e-01,1.487030000000000018e-01,3.017130000000000090e-01,1.997059999999999946e-01,9.769999999999999518e-02,-4.307000000000000065e-03,1.232010000000000050e-01,-4.307000000000000065e-03,9.769999999999999518e-02,9.769999999999999518e-02,3.527159999999999740e-01,3.527159999999999740e-01,6.077320000000000499e-01,1.742049999999999987e-01,2.119499999999999856e-02,-1.573170000000000124e-01,7.219799999999999829e-02,-8.081199999999999495e-02,-4.307000000000000065e-03,1.487030000000000018e-01,3.017130000000000090e-01,3.527159999999999740e-01,2.252079999999999915e-01,-2.980800000000000116e-02,9.769999999999999518e-02,1.487030000000000018e-01,4.669600000000000140e-02,-4.307000000000000065e-03,-2.980800000000000116e-02,1.742049999999999987e-01,4.037189999999999945e-01,3.017130000000000090e-01,3.782179999999999986e-01,1.232010000000000050e-01,3.017130000000000090e-01,-1.318149999999999877e-01,-8.081199999999999495e-02,4.669600000000000140e-02,1.742049999999999987e-01,2.252079999999999915e-01,5.312280000000000335e-01,2.252079999999999915e-01,7.219799999999999829e-02,-2.980800000000000116e-02,-5.530999999999999805e-02,-1.063130000000000047e-01,-4.307000000000000065e-03,1.997059999999999946e-01,7.219799999999999829e-02,3.272140000000000049e-01,3.527159999999999740e-01,3.527159999999999740e-01,3.017130000000000090e-01,1.742049999999999987e-01,7.219799999999999829e-02,-4.307000000000000065e-03,-5.530999999999999805e-02,2.119499999999999856e-02,-4.307000000000000065e-03,1.487030000000000018e-01,4.547229999999999883e-01,2.762109999999999843e-01,2.507099999999999884e-01,1.742049999999999987e-01,1.742049999999999987e-01,1.997059999999999946e-01,2.119499999999999856e-02,2.119499999999999856e-02,-8.081199999999999495e-02,-8.081199999999999495e-02,3.272140000000000049e-01,3.782179999999999986e-01,2.507099999999999884e-01,1.997059999999999946e-01,1.487030000000000018e-01,1.742049999999999987e-01,7.219799999999999829e-02,4.669600000000000140e-02,-1.318149999999999877e-01,1.997059999999999946e-01,3.272140000000000049e-01,2.762109999999999843e-01,2.762109999999999843e-01,2.252079999999999915e-01,1.232010000000000050e-01,1.742049999999999987e-01,9.769999999999999518e-02,-2.980800000000000116e-02,-8.081199999999999495e-02,-1.573170000000000124e-01,3.527159999999999740e-01,4.292210000000000192e-01,5.312280000000000335e-01,1.487030000000000018e-01,7.219799999999999829e-02,2.119499999999999856e-02,-1.828180000000000083e-01,-4.307000000000000065e-03,-4.307000000000000065e-03,2.252079999999999915e-01,4.802239999999999842e-01,4.037189999999999945e-01,2.507099999999999884e-01,1.232010000000000050e-01,1.232010000000000050e-01,-1.318149999999999877e-01,7.219799999999999829e-02,-8.081199999999999495e-02,7.219799999999999829e-02,7.219799999999999829e-02,4.547229999999999883e-01,2.507099999999999884e-01,2.252079999999999915e-01,7.219799999999999829e-02,1.997059999999999946e-01,2.119499999999999856e-02,1.997059999999999946e-01,7.219799999999999829e-02,9.769999999999999518e-02,1.232010000000000050e-01,3.017130000000000090e-01,1.742049999999999987e-01,1.487030000000000018e-01,2.252079999999999915e-01,4.669600000000000140e-02,-8.081199999999999495e-02,1.232010000000000050e-01,4.669600000000000140e-02,1.232010000000000050e-01,3.017130000000000090e-01,4.547229999999999883e-01,4.037189999999999945e-01,1.487030000000000018e-01,1.742049999999999987e-01,-4.307000000000000065e-03,-8.081199999999999495e-02,-2.980800000000000116e-02,-5.530999999999999805e-02,2.119499999999999856e-02,2.762109999999999843e-01,4.037189999999999945e-01,3.017130000000000090e-01,1.997059999999999946e-01,1.742049999999999987e-01,1.232010000000000050e-01,-4.307000000000000065e-03,1.232010000000000050e-01,-1.318149999999999877e-01,9.769999999999999518e-02,2.252079999999999915e-01,4.802239999999999842e-01,2.762109999999999843e-01,2.507099999999999884e-01,9.769999999999999518e-02,-8.081199999999999495e-02,-8.081199999999999495e-02,-1.063130000000000047e-01,2.119499999999999856e-02,-5.530999999999999805e-02,3.272140000000000049e-01,5.312280000000000335e-01,5.312280000000000335e-01,2.119499999999999856e-02,4.669600000000000140e-02,4.669600000000000140e-02,-2.980800000000000116e-02,7.219799999999999829e-02,7.219799999999999829e-02,1.997059999999999946e-01,3.272140000000000049e-01,4.292210000000000192e-01,1.232010000000000050e-01,1.232010000000000050e-01,-5.530999999999999805e-02,-1.063130000000000047e-01,-8.081199999999999495e-02,1.742049999999999987e-01,4.669600000000000140e-02,4.669600000000000140e-02,3.272140000000000049e-01,3.272140000000000049e-01,3.272140000000000049e-01,2.507099999999999884e-01,1.232010000000000050e-01,1.232010000000000050e-01,9.769999999999999518e-02,2.119499999999999856e-02,-4.307000000000000065e-03,2.119499999999999856e-02,1.232010000000000050e-01,2.252079999999999915e-01,1.232010000000000050e-01,2.252079999999999915e-01,2.507099999999999884e-01,-4.307000000000000065e-03,7.219799999999999829e-02,7.219799999999999829e-02,-2.980800000000000116e-02,2.119499999999999856e-02,1.487030000000000018e-01,4.292210000000000192e-01,4.037189999999999945e-01,3.782179999999999986e-01,4.669600000000000140e-02
